# TOPAS Version: 3.1.p3
# Parameter File: batch_inserts_160.txt
# Results for scorer Readout_Adipose
# Scored in component: MyBox
# X in 1 bin  of 0.75 cm
# Y in 512 bins of 0.0783984 cm
# Z in 128 bins of 0.078125 cm
# EnergyDeposit ( MeV ) : Sum   
0, 0, 0, 5.140893459320068
0, 0, 1, 2.390203952789307
0, 0, 2, 4.631359100341797
0, 0, 3, 1.221042513847351
0, 0, 4, 2.839179515838623
0, 0, 5, 1.304353594779968
0, 0, 6, 7.087159633636475
0, 0, 7, 10.31966590881348
0, 0, 8, 3.211150646209717
0, 0, 9, 5.777456760406494
0, 0, 10, 6.267593383789062
0, 0, 11, 4.714248180389404
0, 0, 12, 4.391928672790527
0, 0, 13, 5.693941116333008
0, 0, 14, 6.746568202972412
0, 0, 15, 8.068401336669922
0, 0, 16, 9.801156044006348
0, 0, 17, 8.994924545288086
0, 0, 18, 12.92657852172852
0, 0, 19, 43.98056030273438
0, 0, 20, 139.722900390625
0, 0, 21, 222.7865142822266
0, 0, 22, 248.7286224365234
0, 0, 23, 256.4664001464844
0, 0, 24, 253.3105773925781
0, 0, 25, 258.7872924804688
0, 0, 26, 234.9537048339844
0, 0, 27, 238.8305053710938
0, 0, 28, 271.0844116210938
0, 0, 29, 251.896240234375
0, 0, 30, 229.2884826660156
0, 0, 31, 243.6214294433594
0, 0, 32, 263.5830688476562
0, 0, 33, 260.2560424804688
0, 0, 34, 288.2800598144531
0, 0, 35, 267.9893798828125
0, 0, 36, 246.7199554443359
0, 0, 37, 252.0780334472656
0, 0, 38, 267.1768188476562
0, 0, 39, 228.6598205566406
0, 0, 40, 243.4347686767578
0, 0, 41, 265.21044921875
0, 0, 42, 230.5411834716797
0, 0, 43, 259.4576416015625
0, 0, 44, 252.9022674560547
0, 0, 45, 252.9230041503906
0, 0, 46, 244.2643585205078
0, 0, 47, 255.3955841064453
0, 0, 48, 268.2754516601562
0, 0, 49, 273.1753845214844
0, 0, 50, 252.1194610595703
0, 0, 51, 256.9670104980469
0, 0, 52, 271.6892700195312
0, 0, 53, 291.0516967773438
0, 0, 54, 242.6752777099609
0, 0, 55, 240.1980133056641
0, 0, 56, 276.9881591796875
0, 0, 57, 262.0617370605469
0, 0, 58, 244.7374725341797
0, 0, 59, 268.849853515625
0, 0, 60, 236.0532836914062
0, 0, 61, 244.5713500976562
0, 0, 62, 259.130859375
0, 0, 63, 267.9293823242188
0, 0, 64, 254.5928497314453
0, 0, 65, 261.0040893554688
0, 0, 66, 277.5071716308594
0, 0, 67, 245.9214782714844
0, 0, 68, 258.8915405273438
0, 0, 69, 260.4523010253906
0, 0, 70, 272.2991333007812
0, 0, 71, 239.7848052978516
0, 0, 72, 249.1152801513672
0, 0, 73, 260.1677551269531
0, 0, 74, 251.2473754882812
0, 0, 75, 241.2117919921875
0, 0, 76, 229.90673828125
0, 0, 77, 259.4867553710938
0, 0, 78, 258.884033203125
0, 0, 79, 278.4472961425781
0, 0, 80, 215.1014709472656
0, 0, 81, 266.7723693847656
0, 0, 82, 256.7562561035156
0, 0, 83, 246.35888671875
0, 0, 84, 268.1761474609375
0, 0, 85, 230.9656219482422
0, 0, 86, 254.4957733154297
0, 0, 87, 252.1449432373047
0, 0, 88, 261.4713745117188
0, 0, 89, 282.7300720214844
0, 0, 90, 244.9812927246094
0, 0, 91, 281.2719116210938
0, 0, 92, 254.0874786376953
0, 0, 93, 250.0564117431641
0, 0, 94, 250.0602722167969
0, 0, 95, 249.5298309326172
0, 0, 96, 273.8000183105469
0, 0, 97, 273.9541320800781
0, 0, 98, 272.1469116210938
0, 0, 99, 259.0080871582031
0, 0, 100, 257.157470703125
0, 0, 101, 225.7346801757812
0, 0, 102, 233.5420684814453
0, 0, 103, 271.5961608886719
0, 0, 104, 256.5127258300781
0, 0, 105, 252.0216827392578
0, 0, 106, 246.9525451660156
0, 0, 107, 153.0995178222656
0, 0, 108, 38.49748229980469
0, 0, 109, 12.32598781585693
0, 0, 110, 12.3161506652832
0, 0, 111, 9.665194511413574
0, 0, 112, 7.949674606323242
0, 0, 113, 5.675100803375244
0, 0, 114, 7.517177581787109
0, 0, 115, 4.336609840393066
0, 0, 116, 4.94697904586792
0, 0, 117, 5.536406517028809
0, 0, 118, 6.493028163909912
0, 0, 119, 4.230509757995605
0, 0, 120, 4.064600467681885
0, 0, 121, 3.363832950592041
0, 0, 122, 5.590254306793213
0, 0, 123, 2.309125423431396
0, 0, 124, 5.164592742919922
0, 0, 125, 4.155536651611328
0, 0, 126, 7.097792625427246
0, 0, 127, 2.047987699508667
0, 1, 0, 6.870481967926025
0, 1, 1, 3.370705842971802
0, 1, 2, 6.749462604522705
0, 1, 3, 4.006884098052979
0, 1, 4, 4.729117870330811
0, 1, 5, 4.588871479034424
0, 1, 6, 5.734923839569092
0, 1, 7, 6.687877655029297
0, 1, 8, 8.606364250183105
0, 1, 9, 4.003425121307373
0, 1, 10, 7.304121971130371
0, 1, 11, 11.64195251464844
0, 1, 12, 8.018656730651855
0, 1, 13, 10.24633407592773
0, 1, 14, 8.161582946777344
0, 1, 15, 7.463595867156982
0, 1, 16, 11.93587970733643
0, 1, 17, 9.859606742858887
0, 1, 18, 20.19618225097656
0, 1, 19, 64.88604736328125
0, 1, 20, 200.8706970214844
0, 1, 21, 254.3156585693359
0, 1, 22, 296.6414184570312
0, 1, 23, 283.9593200683594
0, 1, 24, 276.6134948730469
0, 1, 25, 286.4775695800781
0, 1, 26, 269.7581176757812
0, 1, 27, 307.1449279785156
0, 1, 28, 300.8409729003906
0, 1, 29, 296.4914855957031
0, 1, 30, 280.7160949707031
0, 1, 31, 294.0154724121094
0, 1, 32, 290.7170715332031
0, 1, 33, 297.0673217773438
0, 1, 34, 291.5972900390625
0, 1, 35, 278.1947021484375
0, 1, 36, 307.0990295410156
0, 1, 37, 294.0435180664062
0, 1, 38, 278.0779113769531
0, 1, 39, 295.0546569824219
0, 1, 40, 265.876708984375
0, 1, 41, 287.6555480957031
0, 1, 42, 289.8346557617188
0, 1, 43, 332.6291198730469
0, 1, 44, 278.4078979492188
0, 1, 45, 293.2540283203125
0, 1, 46, 259.9972534179688
0, 1, 47, 308.4548034667969
0, 1, 48, 282.5101928710938
0, 1, 49, 304.6643676757812
0, 1, 50, 263.1806335449219
0, 1, 51, 276.1158142089844
0, 1, 52, 297.4828186035156
0, 1, 53, 303.6467590332031
0, 1, 54, 273.1186218261719
0, 1, 55, 292.6158752441406
0, 1, 56, 279.390625
0, 1, 57, 297.9550170898438
0, 1, 58, 309.1940612792969
0, 1, 59, 291.6064147949219
0, 1, 60, 299.6243896484375
0, 1, 61, 275.5415954589844
0, 1, 62, 309.2056579589844
0, 1, 63, 287.0369873046875
0, 1, 64, 289.844482421875
0, 1, 65, 294.7948608398438
0, 1, 66, 293.3139953613281
0, 1, 67, 290.4479064941406
0, 1, 68, 277.2144775390625
0, 1, 69, 282.0840454101562
0, 1, 70, 270.9617004394531
0, 1, 71, 273.0268859863281
0, 1, 72, 285.1404724121094
0, 1, 73, 304.156982421875
0, 1, 74, 305.9058532714844
0, 1, 75, 291.6134948730469
0, 1, 76, 284.7982177734375
0, 1, 77, 290.0173645019531
0, 1, 78, 299.16943359375
0, 1, 79, 301.509033203125
0, 1, 80, 296.6064147949219
0, 1, 81, 299.6908569335938
0, 1, 82, 282.8318481445312
0, 1, 83, 334.6487731933594
0, 1, 84, 310.33544921875
0, 1, 85, 252.9496765136719
0, 1, 86, 293.4826965332031
0, 1, 87, 289.5238037109375
0, 1, 88, 297.3298034667969
0, 1, 89, 292.1444091796875
0, 1, 90, 271.0206909179688
0, 1, 91, 318.3196105957031
0, 1, 92, 290.4680480957031
0, 1, 93, 287.0292358398438
0, 1, 94, 306.2878112792969
0, 1, 95, 284.0312194824219
0, 1, 96, 284.7703857421875
0, 1, 97, 304.2461853027344
0, 1, 98, 277.5232238769531
0, 1, 99, 267.2449951171875
0, 1, 100, 277.8363342285156
0, 1, 101, 282.9366455078125
0, 1, 102, 278.6271057128906
0, 1, 103, 280.8868408203125
0, 1, 104, 305.8957824707031
0, 1, 105, 296.8465270996094
0, 1, 106, 260.3466796875
0, 1, 107, 192.8865661621094
0, 1, 108, 80.38849639892578
0, 1, 109, 23.76422309875488
0, 1, 110, 12.43605995178223
0, 1, 111, 7.956423759460449
0, 1, 112, 13.10852146148682
0, 1, 113, 6.450466632843018
0, 1, 114, 6.15913724899292
0, 1, 115, 6.865042686462402
0, 1, 116, 10.99806880950928
0, 1, 117, 6.848040103912354
0, 1, 118, 3.640106678009033
0, 1, 119, 4.944907665252686
0, 1, 120, 5.050172328948975
0, 1, 121, 3.010814189910889
0, 1, 122, 4.221616744995117
0, 1, 123, 3.467106103897095
0, 1, 124, 7.443568706512451
0, 1, 125, 4.74156379699707
0, 1, 126, 4.693783760070801
0, 1, 127, 1.138700008392334
0, 2, 0, 4.540625095367432
0, 2, 1, 1.655099153518677
0, 2, 2, 4.423182010650635
0, 2, 3, 4.303849697113037
0, 2, 4, 2.917232036590576
0, 2, 5, 1.718371391296387
0, 2, 6, 1.973419427871704
0, 2, 7, 3.972495555877686
0, 2, 8, 6.761826515197754
0, 2, 9, 5.426255226135254
0, 2, 10, 8.107070922851562
0, 2, 11, 7.688992023468018
0, 2, 12, 6.668638229370117
0, 2, 13, 10.2407808303833
0, 2, 14, 11.00314998626709
0, 2, 15, 9.830410003662109
0, 2, 16, 9.336786270141602
0, 2, 17, 17.38380241394043
0, 2, 18, 30.49932479858398
0, 2, 19, 115.1773223876953
0, 2, 20, 245.9867248535156
0, 2, 21, 272.4451904296875
0, 2, 22, 317.0327453613281
0, 2, 23, 300.3968200683594
0, 2, 24, 285.5294494628906
0, 2, 25, 303.0480041503906
0, 2, 26, 292.5509033203125
0, 2, 27, 274.6687927246094
0, 2, 28, 274.388671875
0, 2, 29, 274.2148742675781
0, 2, 30, 288.0311584472656
0, 2, 31, 277.1520690917969
0, 2, 32, 295.7874755859375
0, 2, 33, 283.2780151367188
0, 2, 34, 332.0978698730469
0, 2, 35, 289.7909545898438
0, 2, 36, 303.04248046875
0, 2, 37, 316.1346435546875
0, 2, 38, 310.7799987792969
0, 2, 39, 265.4478759765625
0, 2, 40, 307.8212280273438
0, 2, 41, 292.8660583496094
0, 2, 42, 304.3049621582031
0, 2, 43, 314.6426696777344
0, 2, 44, 312.1773681640625
0, 2, 45, 326.0400695800781
0, 2, 46, 287.1432495117188
0, 2, 47, 302.1661071777344
0, 2, 48, 281.2051391601562
0, 2, 49, 278.7598266601562
0, 2, 50, 293.8626098632812
0, 2, 51, 284.2875671386719
0, 2, 52, 270.8742065429688
0, 2, 53, 286.8489685058594
0, 2, 54, 277.9560546875
0, 2, 55, 276.7054138183594
0, 2, 56, 303.1426086425781
0, 2, 57, 291.9072570800781
0, 2, 58, 304.8686218261719
0, 2, 59, 294.6999816894531
0, 2, 60, 318.7301025390625
0, 2, 61, 302.3659362792969
0, 2, 62, 313.419677734375
0, 2, 63, 306.3071594238281
0, 2, 64, 295.0875244140625
0, 2, 65, 314.257568359375
0, 2, 66, 278.2110290527344
0, 2, 67, 290.5694885253906
0, 2, 68, 295.6752014160156
0, 2, 69, 309.582763671875
0, 2, 70, 334.0465393066406
0, 2, 71, 285.436279296875
0, 2, 72, 301.11376953125
0, 2, 73, 310.6609191894531
0, 2, 74, 286.9761047363281
0, 2, 75, 304.6900329589844
0, 2, 76, 288.5821533203125
0, 2, 77, 299.1231079101562
0, 2, 78, 318.4567565917969
0, 2, 79, 310.7410583496094
0, 2, 80, 299.001220703125
0, 2, 81, 283.6755676269531
0, 2, 82, 320.1396484375
0, 2, 83, 315.3611755371094
0, 2, 84, 287.0614929199219
0, 2, 85, 283.5213623046875
0, 2, 86, 324.8677368164062
0, 2, 87, 289.1930541992188
0, 2, 88, 280.2801818847656
0, 2, 89, 295.5962829589844
0, 2, 90, 294.8444213867188
0, 2, 91, 275.8161315917969
0, 2, 92, 305.5320129394531
0, 2, 93, 316.8098754882812
0, 2, 94, 293.0387268066406
0, 2, 95, 315.5114440917969
0, 2, 96, 315.4366149902344
0, 2, 97, 289.7698974609375
0, 2, 98, 294.1672058105469
0, 2, 99, 274.0200500488281
0, 2, 100, 305.06787109375
0, 2, 101, 302.1388854980469
0, 2, 102, 297.2266845703125
0, 2, 103, 293.1948547363281
0, 2, 104, 292.204345703125
0, 2, 105, 273.9278869628906
0, 2, 106, 299.7453002929688
0, 2, 107, 268.7622375488281
0, 2, 108, 116.2622375488281
0, 2, 109, 31.64735984802246
0, 2, 110, 9.302022933959961
0, 2, 111, 11.25857639312744
0, 2, 112, 9.03057861328125
0, 2, 113, 10.14689922332764
0, 2, 114, 9.961390495300293
0, 2, 115, 10.33177661895752
0, 2, 116, 8.535894393920898
0, 2, 117, 8.114823341369629
0, 2, 118, 3.859200954437256
0, 2, 119, 2.383030414581299
0, 2, 120, 11.33359146118164
0, 2, 121, 4.038297176361084
0, 2, 122, 4.171935558319092
0, 2, 123, 4.234375953674316
0, 2, 124, 1.902321219444275
0, 2, 125, 4.145902156829834
0, 2, 126, 2.694526672363281
0, 2, 127, 5.292007446289062
0, 3, 0, 3.328092098236084
0, 3, 1, 3.345388650894165
0, 3, 2, 4.295719623565674
0, 3, 3, 4.139983177185059
0, 3, 4, 3.335964918136597
0, 3, 5, 7.534605979919434
0, 3, 6, 6.144896030426025
0, 3, 7, 5.04601526260376
0, 3, 8, 5.755379676818848
0, 3, 9, 7.538079738616943
0, 3, 10, 9.044219970703125
0, 3, 11, 4.736287117004395
0, 3, 12, 8.909176826477051
0, 3, 13, 14.92240333557129
0, 3, 14, 10.77407169342041
0, 3, 15, 12.75727367401123
0, 3, 16, 12.79579257965088
0, 3, 17, 21.9098949432373
0, 3, 18, 53.56893920898438
0, 3, 19, 175.9208221435547
0, 3, 20, 270.4808654785156
0, 3, 21, 270.7664794921875
0, 3, 22, 284.7483825683594
0, 3, 23, 285.3017883300781
0, 3, 24, 286.0615539550781
0, 3, 25, 273.321044921875
0, 3, 26, 303.2261352539062
0, 3, 27, 292.4173889160156
0, 3, 28, 278.8095092773438
0, 3, 29, 339.0713500976562
0, 3, 30, 315.7646789550781
0, 3, 31, 285.5514221191406
0, 3, 32, 306.0713500976562
0, 3, 33, 313.5498962402344
0, 3, 34, 320.4488830566406
0, 3, 35, 305.626708984375
0, 3, 36, 268.38134765625
0, 3, 37, 315.0503234863281
0, 3, 38, 304.0047912597656
0, 3, 39, 289.901123046875
0, 3, 40, 268.9512329101562
0, 3, 41, 302.1175842285156
0, 3, 42, 284.2534790039062
0, 3, 43, 306.5462951660156
0, 3, 44, 312.1117858886719
0, 3, 45, 290.2620849609375
0, 3, 46, 328.5438232421875
0, 3, 47, 300.1110534667969
0, 3, 48, 302.3404541015625
0, 3, 49, 278.3983154296875
0, 3, 50, 290.9220886230469
0, 3, 51, 278.1767883300781
0, 3, 52, 315.8540954589844
0, 3, 53, 286.7257690429688
0, 3, 54, 283.9686279296875
0, 3, 55, 285.0302734375
0, 3, 56, 298.3747863769531
0, 3, 57, 288.1584167480469
0, 3, 58, 308.8202819824219
0, 3, 59, 293.9437255859375
0, 3, 60, 296.9807739257812
0, 3, 61, 267.736083984375
0, 3, 62, 283.4471740722656
0, 3, 63, 305.5496215820312
0, 3, 64, 315.7490844726562
0, 3, 65, 305.9982299804688
0, 3, 66, 317.8667297363281
0, 3, 67, 318.7680969238281
0, 3, 68, 279.6946716308594
0, 3, 69, 280.4039916992188
0, 3, 70, 288.4855041503906
0, 3, 71, 300.0942077636719
0, 3, 72, 269.8278198242188
0, 3, 73, 308.3053588867188
0, 3, 74, 294.0176696777344
0, 3, 75, 289.5499267578125
0, 3, 76, 306.9480590820312
0, 3, 77, 312.757080078125
0, 3, 78, 302.1523132324219
0, 3, 79, 282.80322265625
0, 3, 80, 289.7237243652344
0, 3, 81, 311.5268859863281
0, 3, 82, 314.8190307617188
0, 3, 83, 300.5701293945312
0, 3, 84, 310.8282165527344
0, 3, 85, 291.337890625
0, 3, 86, 301.3104858398438
0, 3, 87, 297.8968200683594
0, 3, 88, 297.2532043457031
0, 3, 89, 298.0973815917969
0, 3, 90, 275.9581298828125
0, 3, 91, 285.0161743164062
0, 3, 92, 303.7867736816406
0, 3, 93, 312.777099609375
0, 3, 94, 297.3050842285156
0, 3, 95, 332.5959777832031
0, 3, 96, 289.6624450683594
0, 3, 97, 286.1293029785156
0, 3, 98, 278.8755798339844
0, 3, 99, 260.7355346679688
0, 3, 100, 284.14111328125
0, 3, 101, 297.9924926757812
0, 3, 102, 274.1099243164062
0, 3, 103, 322.0321655273438
0, 3, 104, 305.1649475097656
0, 3, 105, 287.7816772460938
0, 3, 106, 304.0430603027344
0, 3, 107, 281.9959716796875
0, 3, 108, 167.692626953125
0, 3, 109, 55.78137969970703
0, 3, 110, 17.05600738525391
0, 3, 111, 14.20848083496094
0, 3, 112, 14.53798580169678
0, 3, 113, 5.405285358428955
0, 3, 114, 8.71774959564209
0, 3, 115, 6.682934284210205
0, 3, 116, 8.460268020629883
0, 3, 117, 7.443946838378906
0, 3, 118, 9.515656471252441
0, 3, 119, 4.488741874694824
0, 3, 120, 8.260683059692383
0, 3, 121, 1.994801640510559
0, 3, 122, 1.85320770740509
0, 3, 123, 4.346368312835693
0, 3, 124, 5.439304351806641
0, 3, 125, 6.828212738037109
0, 3, 126, 5.002830505371094
0, 3, 127, 2.363711595535278
0, 4, 0, 2.068805694580078
0, 4, 1, 4.813251972198486
0, 4, 2, 2.927340269088745
0, 4, 3, 2.2678542137146
0, 4, 4, 5.310557842254639
0, 4, 5, 7.1969895362854
0, 4, 6, 5.830145835876465
0, 4, 7, 5.534712314605713
0, 4, 8, 5.313143253326416
0, 4, 9, 6.024234294891357
0, 4, 10, 6.556490898132324
0, 4, 11, 6.729304790496826
0, 4, 12, 6.567715167999268
0, 4, 13, 6.920036792755127
0, 4, 14, 13.14935779571533
0, 4, 15, 9.995806694030762
0, 4, 16, 12.87623310089111
0, 4, 17, 18.96781349182129
0, 4, 18, 92.57331085205078
0, 4, 19, 222.001953125
0, 4, 20, 286.3507385253906
0, 4, 21, 270.9986877441406
0, 4, 22, 305.4788513183594
0, 4, 23, 266.2587890625
0, 4, 24, 288.9787292480469
0, 4, 25, 273.6982727050781
0, 4, 26, 294.4849853515625
0, 4, 27, 281.6210327148438
0, 4, 28, 309.6224060058594
0, 4, 29, 324.8309326171875
0, 4, 30, 309.7496643066406
0, 4, 31, 305.1396789550781
0, 4, 32, 280.5986022949219
0, 4, 33, 298.2652282714844
0, 4, 34, 295.2724609375
0, 4, 35, 313.81201171875
0, 4, 36, 294.5274658203125
0, 4, 37, 288.9988098144531
0, 4, 38, 299.0661010742188
0, 4, 39, 294.9363098144531
0, 4, 40, 302.0756530761719
0, 4, 41, 311.7160949707031
0, 4, 42, 329.0899963378906
0, 4, 43, 296.889892578125
0, 4, 44, 321.2942810058594
0, 4, 45, 323.1769409179688
0, 4, 46, 304.52685546875
0, 4, 47, 292.2892150878906
0, 4, 48, 296.5419311523438
0, 4, 49, 277.2903747558594
0, 4, 50, 297.0068969726562
0, 4, 51, 315.9757690429688
0, 4, 52, 327.6726379394531
0, 4, 53, 308.1488342285156
0, 4, 54, 288.8643188476562
0, 4, 55, 314.3011474609375
0, 4, 56, 284.9038696289062
0, 4, 57, 309.9386901855469
0, 4, 58, 297.0735778808594
0, 4, 59, 308.5328979492188
0, 4, 60, 303.7920837402344
0, 4, 61, 315.4132385253906
0, 4, 62, 307.1524963378906
0, 4, 63, 299.3790283203125
0, 4, 64, 329.7647399902344
0, 4, 65, 316.8951416015625
0, 4, 66, 295.6385192871094
0, 4, 67, 287.8077392578125
0, 4, 68, 310.6189575195312
0, 4, 69, 275.4677124023438
0, 4, 70, 298.4151306152344
0, 4, 71, 321.5558776855469
0, 4, 72, 331.3414916992188
0, 4, 73, 297.3688659667969
0, 4, 74, 292.0086669921875
0, 4, 75, 290.9549865722656
0, 4, 76, 273.9394226074219
0, 4, 77, 278.3217468261719
0, 4, 78, 309.8860168457031
0, 4, 79, 318.9808959960938
0, 4, 80, 316.7102661132812
0, 4, 81, 313.3555297851562
0, 4, 82, 298.56298828125
0, 4, 83, 303.3446960449219
0, 4, 84, 291.475830078125
0, 4, 85, 296.1614685058594
0, 4, 86, 297.4239196777344
0, 4, 87, 285.9283447265625
0, 4, 88, 304.0579223632812
0, 4, 89, 297.7821350097656
0, 4, 90, 334.578125
0, 4, 91, 300.7672119140625
0, 4, 92, 289.9606018066406
0, 4, 93, 296.5704345703125
0, 4, 94, 291.4811401367188
0, 4, 95, 287.7832946777344
0, 4, 96, 330.1513366699219
0, 4, 97, 273.5472412109375
0, 4, 98, 327.9872436523438
0, 4, 99, 315.35107421875
0, 4, 100, 301.9175720214844
0, 4, 101, 256.8711547851562
0, 4, 102, 296.2854919433594
0, 4, 103, 318.1883850097656
0, 4, 104, 281.1851501464844
0, 4, 105, 309.974853515625
0, 4, 106, 286.7696228027344
0, 4, 107, 297.4924621582031
0, 4, 108, 226.3163299560547
0, 4, 109, 78.55770874023438
0, 4, 110, 16.9085521697998
0, 4, 111, 13.98012065887451
0, 4, 112, 7.329089641571045
0, 4, 113, 10.58749866485596
0, 4, 114, 7.080093860626221
0, 4, 115, 10.18734645843506
0, 4, 116, 7.939018726348877
0, 4, 117, 6.644654273986816
0, 4, 118, 10.00395679473877
0, 4, 119, 8.988548278808594
0, 4, 120, 8.745782852172852
0, 4, 121, 6.231852531433105
0, 4, 122, 3.044014930725098
0, 4, 123, 6.607441902160645
0, 4, 124, 6.738796710968018
0, 4, 125, 10.376296043396
0, 4, 126, 4.62995719909668
0, 4, 127, 3.741435527801514
0, 5, 0, 3.819260597229004
0, 5, 1, 3.499856472015381
0, 5, 2, 5.331574440002441
0, 5, 3, 4.548881530761719
0, 5, 4, 6.026299953460693
0, 5, 5, 8.848727226257324
0, 5, 6, 5.991925716400146
0, 5, 7, 4.57797384262085
0, 5, 8, 5.738084316253662
0, 5, 9, 4.523235321044922
0, 5, 10, 6.310423851013184
0, 5, 11, 8.486086845397949
0, 5, 12, 8.033286094665527
0, 5, 13, 4.829706192016602
0, 5, 14, 12.11417770385742
0, 5, 15, 16.81989288330078
0, 5, 16, 14.32117462158203
0, 5, 17, 28.74892616271973
0, 5, 18, 136.0055541992188
0, 5, 19, 286.88623046875
0, 5, 20, 307.8387145996094
0, 5, 21, 317.1993713378906
0, 5, 22, 276.37841796875
0, 5, 23, 310.9994201660156
0, 5, 24, 303.5260925292969
0, 5, 25, 291.6163635253906
0, 5, 26, 296.4064636230469
0, 5, 27, 321.9195251464844
0, 5, 28, 304.4427185058594
0, 5, 29, 297.2071228027344
0, 5, 30, 322.6115112304688
0, 5, 31, 285.3296813964844
0, 5, 32, 305.8657531738281
0, 5, 33, 304.729248046875
0, 5, 34, 296.5805358886719
0, 5, 35, 309.0122375488281
0, 5, 36, 270.2882385253906
0, 5, 37, 282.8366088867188
0, 5, 38, 290.9210205078125
0, 5, 39, 312.4755859375
0, 5, 40, 306.9700622558594
0, 5, 41, 271.8960266113281
0, 5, 42, 305.2579345703125
0, 5, 43, 313.0533142089844
0, 5, 44, 294.7828369140625
0, 5, 45, 303.6189880371094
0, 5, 46, 266.2608947753906
0, 5, 47, 279.3289489746094
0, 5, 48, 296.4208679199219
0, 5, 49, 287.4102172851562
0, 5, 50, 295.0384521484375
0, 5, 51, 279.0108032226562
0, 5, 52, 268.8643493652344
0, 5, 53, 284.7800598144531
0, 5, 54, 292.5484924316406
0, 5, 55, 347.5613403320312
0, 5, 56, 304.9035949707031
0, 5, 57, 307.4891357421875
0, 5, 58, 313.9674377441406
0, 5, 59, 303.9986877441406
0, 5, 60, 309.4480590820312
0, 5, 61, 281.5685424804688
0, 5, 62, 323.160888671875
0, 5, 63, 289.7257080078125
0, 5, 64, 322.2675170898438
0, 5, 65, 306.8938293457031
0, 5, 66, 327.7313842773438
0, 5, 67, 314.8541564941406
0, 5, 68, 308.2986450195312
0, 5, 69, 312.5319519042969
0, 5, 70, 303.3671569824219
0, 5, 71, 273.0240478515625
0, 5, 72, 310.4319763183594
0, 5, 73, 303.641357421875
0, 5, 74, 294.7643432617188
0, 5, 75, 294.4877624511719
0, 5, 76, 284.0291442871094
0, 5, 77, 297.8613891601562
0, 5, 78, 314.0949401855469
0, 5, 79, 308.1303405761719
0, 5, 80, 294.7112731933594
0, 5, 81, 324.8352355957031
0, 5, 82, 323.2111511230469
0, 5, 83, 280.2967224121094
0, 5, 84, 301.2684020996094
0, 5, 85, 271.1211242675781
0, 5, 86, 325.7803344726562
0, 5, 87, 285.59765625
0, 5, 88, 312.9695739746094
0, 5, 89, 307.5593566894531
0, 5, 90, 315.4126892089844
0, 5, 91, 314.6956176757812
0, 5, 92, 296.8943786621094
0, 5, 93, 322.1964721679688
0, 5, 94, 307.4448547363281
0, 5, 95, 298.1171875
0, 5, 96, 299.9064331054688
0, 5, 97, 295.6158142089844
0, 5, 98, 316.3961181640625
0, 5, 99, 303.1581726074219
0, 5, 100, 290.377685546875
0, 5, 101, 306.0467529296875
0, 5, 102, 290.7463989257812
0, 5, 103, 313.8777770996094
0, 5, 104, 303.211181640625
0, 5, 105, 290.7190551757812
0, 5, 106, 281.4683837890625
0, 5, 107, 293.3342895507812
0, 5, 108, 267.0677490234375
0, 5, 109, 158.8580474853516
0, 5, 110, 40.60680389404297
0, 5, 111, 21.45183181762695
0, 5, 112, 18.21540832519531
0, 5, 113, 14.70035552978516
0, 5, 114, 14.19886684417725
0, 5, 115, 7.431812763214111
0, 5, 116, 8.968819618225098
0, 5, 117, 6.503409385681152
0, 5, 118, 11.59725856781006
0, 5, 119, 5.038334846496582
0, 5, 120, 8.423796653747559
0, 5, 121, 9.019837379455566
0, 5, 122, 5.452157974243164
0, 5, 123, 4.350972175598145
0, 5, 124, 5.907090187072754
0, 5, 125, 4.22639274597168
0, 5, 126, 6.095130920410156
0, 5, 127, 2.978449821472168
0, 6, 0, 3.671921730041504
0, 6, 1, 2.683560848236084
0, 6, 2, 4.957251071929932
0, 6, 3, 5.499861717224121
0, 6, 4, 2.810418605804443
0, 6, 5, 5.244158267974854
0, 6, 6, 9.395309448242188
0, 6, 7, 5.308652400970459
0, 6, 8, 5.701938152313232
0, 6, 9, 6.815825462341309
0, 6, 10, 6.837244510650635
0, 6, 11, 8.379847526550293
0, 6, 12, 8.277576446533203
0, 6, 13, 12.80058288574219
0, 6, 14, 9.319231986999512
0, 6, 15, 16.14167785644531
0, 6, 16, 28.21658515930176
0, 6, 17, 54.20804595947266
0, 6, 18, 171.7212524414062
0, 6, 19, 275.6223754882812
0, 6, 20, 289.9398498535156
0, 6, 21, 313.4580688476562
0, 6, 22, 318.677734375
0, 6, 23, 304.0485229492188
0, 6, 24, 316.1271362304688
0, 6, 25, 316.7332763671875
0, 6, 26, 322.8410034179688
0, 6, 27, 332.9715270996094
0, 6, 28, 295.3576049804688
0, 6, 29, 330.0627746582031
0, 6, 30, 281.0340576171875
0, 6, 31, 288.6511535644531
0, 6, 32, 340.19677734375
0, 6, 33, 302.1210021972656
0, 6, 34, 340.9432067871094
0, 6, 35, 323.4275512695312
0, 6, 36, 273.3167114257812
0, 6, 37, 289.8564453125
0, 6, 38, 314.7804565429688
0, 6, 39, 298.0764770507812
0, 6, 40, 283.7843627929688
0, 6, 41, 296.2832946777344
0, 6, 42, 306.0806274414062
0, 6, 43, 288.7989501953125
0, 6, 44, 281.9795532226562
0, 6, 45, 320.6636657714844
0, 6, 46, 301.0034484863281
0, 6, 47, 332.2855529785156
0, 6, 48, 291.8523559570312
0, 6, 49, 312.8037109375
0, 6, 50, 328.7419128417969
0, 6, 51, 311.1529541015625
0, 6, 52, 320.7117309570312
0, 6, 53, 329.2774658203125
0, 6, 54, 303.0577087402344
0, 6, 55, 305.6218872070312
0, 6, 56, 295.6012573242188
0, 6, 57, 313.8274841308594
0, 6, 58, 262.94482421875
0, 6, 59, 301.6842956542969
0, 6, 60, 313.7783203125
0, 6, 61, 270.6058654785156
0, 6, 62, 334.4034423828125
0, 6, 63, 324.4317321777344
0, 6, 64, 291.9016418457031
0, 6, 65, 284.0224609375
0, 6, 66, 302.5562133789062
0, 6, 67, 312.0411682128906
0, 6, 68, 296.1016235351562
0, 6, 69, 278.3046569824219
0, 6, 70, 273.8564147949219
0, 6, 71, 289.671142578125
0, 6, 72, 309.1695251464844
0, 6, 73, 293.40087890625
0, 6, 74, 329.9526672363281
0, 6, 75, 343.7842712402344
0, 6, 76, 297.2109375
0, 6, 77, 286.1576538085938
0, 6, 78, 277.2323608398438
0, 6, 79, 293.9859924316406
0, 6, 80, 300.0703125
0, 6, 81, 314.91943359375
0, 6, 82, 321.1629333496094
0, 6, 83, 322.5906677246094
0, 6, 84, 296.9982604980469
0, 6, 85, 300.8886108398438
0, 6, 86, 331.4732055664062
0, 6, 87, 287.6403503417969
0, 6, 88, 307.220458984375
0, 6, 89, 303.9703674316406
0, 6, 90, 299.7438354492188
0, 6, 91, 314.6908874511719
0, 6, 92, 287.8380432128906
0, 6, 93, 295.8947143554688
0, 6, 94, 272.3621826171875
0, 6, 95, 299.4905700683594
0, 6, 96, 346.6205749511719
0, 6, 97, 309.5914916992188
0, 6, 98, 301.2836608886719
0, 6, 99, 272.4193725585938
0, 6, 100, 311.3509216308594
0, 6, 101, 293.622314453125
0, 6, 102, 307.3861694335938
0, 6, 103, 308.4234619140625
0, 6, 104, 294.83740234375
0, 6, 105, 300.7553100585938
0, 6, 106, 307.4964294433594
0, 6, 107, 304.8555908203125
0, 6, 108, 265.4265441894531
0, 6, 109, 186.0164184570312
0, 6, 110, 55.19690322875977
0, 6, 111, 21.86870193481445
0, 6, 112, 15.51316738128662
0, 6, 113, 11.45782375335693
0, 6, 114, 11.35281562805176
0, 6, 115, 12.78577709197998
0, 6, 116, 7.891103267669678
0, 6, 117, 7.480738162994385
0, 6, 118, 8.952779769897461
0, 6, 119, 11.28771877288818
0, 6, 120, 6.038894653320312
0, 6, 121, 6.764384746551514
0, 6, 122, 6.751537799835205
0, 6, 123, 4.780776500701904
0, 6, 124, 6.216460227966309
0, 6, 125, 6.453135967254639
0, 6, 126, 4.685598850250244
0, 6, 127, 6.933197021484375
0, 7, 0, 4.520865917205811
0, 7, 1, 4.445981502532959
0, 7, 2, 5.913588523864746
0, 7, 3, 3.86125373840332
0, 7, 4, 7.201495170593262
0, 7, 5, 5.303013801574707
0, 7, 6, 5.83644437789917
0, 7, 7, 4.847452640533447
0, 7, 8, 5.970961093902588
0, 7, 9, 7.873737335205078
0, 7, 10, 10.19043922424316
0, 7, 11, 14.11690616607666
0, 7, 12, 11.16042900085449
0, 7, 13, 13.06281757354736
0, 7, 14, 12.67225646972656
0, 7, 15, 16.49794387817383
0, 7, 16, 27.12760734558105
0, 7, 17, 99.99105834960938
0, 7, 18, 221.1228332519531
0, 7, 19, 291.1844787597656
0, 7, 20, 296.9272766113281
0, 7, 21, 275.8462524414062
0, 7, 22, 298.6094055175781
0, 7, 23, 288.9386291503906
0, 7, 24, 312.3814392089844
0, 7, 25, 324.6863098144531
0, 7, 26, 277.5369567871094
0, 7, 27, 298.1577758789062
0, 7, 28, 328.0602111816406
0, 7, 29, 317.4060668945312
0, 7, 30, 300.5251770019531
0, 7, 31, 277.7136535644531
0, 7, 32, 304.034423828125
0, 7, 33, 261.8280944824219
0, 7, 34, 297.1489868164062
0, 7, 35, 318.6482543945312
0, 7, 36, 331.2781982421875
0, 7, 37, 322.8465576171875
0, 7, 38, 296.12255859375
0, 7, 39, 306.5281066894531
0, 7, 40, 290.9454345703125
0, 7, 41, 271.4902038574219
0, 7, 42, 303.2328796386719
0, 7, 43, 277.4296569824219
0, 7, 44, 303.6432495117188
0, 7, 45, 296.220458984375
0, 7, 46, 280.8427429199219
0, 7, 47, 326.8145751953125
0, 7, 48, 288.0345764160156
0, 7, 49, 301.2678527832031
0, 7, 50, 321.7414855957031
0, 7, 51, 298.3409423828125
0, 7, 52, 325.5732421875
0, 7, 53, 308.5464477539062
0, 7, 54, 322.8453063964844
0, 7, 55, 310.7804260253906
0, 7, 56, 280.4121704101562
0, 7, 57, 281.0718078613281
0, 7, 58, 300.1440124511719
0, 7, 59, 293.97509765625
0, 7, 60, 322.317626953125
0, 7, 61, 278.1546936035156
0, 7, 62, 298.3934631347656
0, 7, 63, 293.6606750488281
0, 7, 64, 308.8651428222656
0, 7, 65, 331.2424926757812
0, 7, 66, 320.890380859375
0, 7, 67, 300.818115234375
0, 7, 68, 278.83837890625
0, 7, 69, 293.3687438964844
0, 7, 70, 300.68896484375
0, 7, 71, 311.2848510742188
0, 7, 72, 285.6071472167969
0, 7, 73, 296.8693237304688
0, 7, 74, 343.8746643066406
0, 7, 75, 318.0386657714844
0, 7, 76, 324.0435180664062
0, 7, 77, 282.9638977050781
0, 7, 78, 299.7339172363281
0, 7, 79, 297.4878540039062
0, 7, 80, 311.1625671386719
0, 7, 81, 319.3542785644531
0, 7, 82, 330.9564514160156
0, 7, 83, 315.664794921875
0, 7, 84, 310.0560302734375
0, 7, 85, 271.545166015625
0, 7, 86, 309.9171142578125
0, 7, 87, 311.3724060058594
0, 7, 88, 306.4977416992188
0, 7, 89, 293.2214660644531
0, 7, 90, 309.2768249511719
0, 7, 91, 314.7571105957031
0, 7, 92, 290.747314453125
0, 7, 93, 309.8142395019531
0, 7, 94, 273.6325073242188
0, 7, 95, 297.3709716796875
0, 7, 96, 331.7413024902344
0, 7, 97, 294.9612426757812
0, 7, 98, 289.84228515625
0, 7, 99, 313.7101440429688
0, 7, 100, 281.7642517089844
0, 7, 101, 276.7985534667969
0, 7, 102, 289.5632934570312
0, 7, 103, 292.4953918457031
0, 7, 104, 274.7833862304688
0, 7, 105, 306.7444458007812
0, 7, 106, 320.62646484375
0, 7, 107, 298.1503295898438
0, 7, 108, 273.1969604492188
0, 7, 109, 238.5014343261719
0, 7, 110, 96.90123748779297
0, 7, 111, 24.68428611755371
0, 7, 112, 12.43740367889404
0, 7, 113, 14.35126209259033
0, 7, 114, 13.21625423431396
0, 7, 115, 15.77273464202881
0, 7, 116, 13.17654132843018
0, 7, 117, 8.197060585021973
0, 7, 118, 9.613407135009766
0, 7, 119, 3.850493907928467
0, 7, 120, 5.141574859619141
0, 7, 121, 6.914265632629395
0, 7, 122, 6.357082843780518
0, 7, 123, 4.733791828155518
0, 7, 124, 2.876118183135986
0, 7, 125, 8.109789848327637
0, 7, 126, 8.780339241027832
0, 7, 127, 5.146346092224121
0, 8, 0, 4.929235458374023
0, 8, 1, 3.696907043457031
0, 8, 2, 2.873385906219482
0, 8, 3, 2.735392808914185
0, 8, 4, 2.382323265075684
0, 8, 5, 3.653865575790405
0, 8, 6, 5.305970191955566
0, 8, 7, 5.996410846710205
0, 8, 8, 7.808179378509521
0, 8, 9, 5.953773498535156
0, 8, 10, 8.770477294921875
0, 8, 11, 12.33854389190674
0, 8, 12, 14.18682479858398
0, 8, 13, 14.78782558441162
0, 8, 14, 13.03631019592285
0, 8, 15, 18.69762420654297
0, 8, 16, 33.46707916259766
0, 8, 17, 130.5427398681641
0, 8, 18, 243.3715209960938
0, 8, 19, 299.4964294433594
0, 8, 20, 285.1846008300781
0, 8, 21, 305.4706420898438
0, 8, 22, 295.1958618164062
0, 8, 23, 275.3915405273438
0, 8, 24, 267.9900207519531
0, 8, 25, 276.8359069824219
0, 8, 26, 305.8506164550781
0, 8, 27, 306.7163696289062
0, 8, 28, 303.5189819335938
0, 8, 29, 321.1661071777344
0, 8, 30, 315.4629821777344
0, 8, 31, 303.9732360839844
0, 8, 32, 280.3771362304688
0, 8, 33, 294.8235778808594
0, 8, 34, 288.8462219238281
0, 8, 35, 277.6694641113281
0, 8, 36, 314.7733154296875
0, 8, 37, 338.2583618164062
0, 8, 38, 331.4717407226562
0, 8, 39, 280.8236999511719
0, 8, 40, 304.4705200195312
