# TOPAS Version: 3.1.p3
# Parameter File: batch_inserts_306.txt
# Results for scorer Readout_Adipose
# Scored in component: MyBox
# X in 1 bin  of 0.75 cm
# Y in 512 bins of 0.0783984 cm
# Z in 128 bins of 0.078125 cm
# EnergyDeposit ( MeV ) : Sum   
0, 0, 0, 28.89640045166016
0, 0, 1, 19.7303352355957
0, 0, 2, 26.57383346557617
0, 0, 3, 23.69103050231934
0, 0, 4, 23.58172035217285
0, 0, 5, 20.64586067199707
0, 0, 6, 23.46016311645508
0, 0, 7, 31.70441627502441
0, 0, 8, 23.45900726318359
0, 0, 9, 25.42104148864746
0, 0, 10, 28.44397354125977
0, 0, 11, 31.3382396697998
0, 0, 12, 38.29507446289062
0, 0, 13, 32.07959747314453
0, 0, 14, 38.67066192626953
0, 0, 15, 44.00504302978516
0, 0, 16, 47.57693099975586
0, 0, 17, 47.7428092956543
0, 0, 18, 76.59377288818359
0, 0, 19, 189.4931182861328
0, 0, 20, 703.0669555664062
0, 0, 21, 1190.532104492188
0, 0, 22, 1249.809326171875
0, 0, 23, 1279.526245117188
0, 0, 24, 1281.234252929688
0, 0, 25, 1357.059814453125
0, 0, 26, 1271.515380859375
0, 0, 27, 1281.004516601562
0, 0, 28, 1321.003540039062
0, 0, 29, 1270.992065429688
0, 0, 30, 1268.545776367188
0, 0, 31, 1276.26220703125
0, 0, 32, 1265.840576171875
0, 0, 33, 1243.933715820312
0, 0, 34, 1326.881591796875
0, 0, 35, 1304.011352539062
0, 0, 36, 1246.82421875
0, 0, 37, 1282.061401367188
0, 0, 38, 1252.290649414062
0, 0, 39, 1243.627319335938
0, 0, 40, 1223.342895507812
0, 0, 41, 1269.496215820312
0, 0, 42, 1251.895629882812
0, 0, 43, 1266.322021484375
0, 0, 44, 1223.115966796875
0, 0, 45, 1290.897338867188
0, 0, 46, 1259.940795898438
0, 0, 47, 1242.226196289062
0, 0, 48, 1274.064086914062
0, 0, 49, 1285.641967773438
0, 0, 50, 1313.068481445312
0, 0, 51, 1263.451416015625
0, 0, 52, 1359.776489257812
0, 0, 53, 1322.704956054688
0, 0, 54, 1295.39208984375
0, 0, 55, 1228.217163085938
0, 0, 56, 1322.989868164062
0, 0, 57, 1292.592407226562
0, 0, 58, 1254.616943359375
0, 0, 59, 1328.124755859375
0, 0, 60, 1326.36474609375
0, 0, 61, 1260.0546875
0, 0, 62, 1243.7685546875
0, 0, 63, 1275.412841796875
0, 0, 64, 1329.015625
0, 0, 65, 1291.716552734375
0, 0, 66, 1318.083984375
0, 0, 67, 1217.039916992188
0, 0, 68, 1311.079833984375
0, 0, 69, 1322.534912109375
0, 0, 70, 1339.419189453125
0, 0, 71, 1288.708740234375
0, 0, 72, 1313.853759765625
0, 0, 73, 1239.76611328125
0, 0, 74, 1288.995239257812
0, 0, 75, 1291.517700195312
0, 0, 76, 1254.2646484375
0, 0, 77, 1285.910278320312
0, 0, 78, 1315.778442382812
0, 0, 79, 1329.73876953125
0, 0, 80, 1260.602783203125
0, 0, 81, 1318.221801757812
0, 0, 82, 1286.883544921875
0, 0, 83, 1293.487670898438
0, 0, 84, 1327.817626953125
0, 0, 85, 1235.360473632812
0, 0, 86, 1264.411987304688
0, 0, 87, 1251.414306640625
0, 0, 88, 1259.541137695312
0, 0, 89, 1338.332885742188
0, 0, 90, 1275.598022460938
0, 0, 91, 1356.40234375
0, 0, 92, 1304.146606445312
0, 0, 93, 1274.6923828125
0, 0, 94, 1244.10791015625
0, 0, 95, 1325.277587890625
0, 0, 96, 1283.215576171875
0, 0, 97, 1328.701293945312
0, 0, 98, 1258.608154296875
0, 0, 99, 1254.96630859375
0, 0, 100, 1288.162231445312
0, 0, 101, 1314.568725585938
0, 0, 102, 1231.13623046875
0, 0, 103, 1322.097290039062
0, 0, 104, 1259.95703125
0, 0, 105, 1267.5439453125
0, 0, 106, 1206.612060546875
0, 0, 107, 781.6638793945312
0, 0, 108, 197.8001098632812
0, 0, 109, 69.60896301269531
0, 0, 110, 62.82986831665039
0, 0, 111, 40.03133392333984
0, 0, 112, 33.28241348266602
0, 0, 113, 36.68509674072266
0, 0, 114, 33.89047241210938
0, 0, 115, 33.67513275146484
0, 0, 116, 28.48998260498047
0, 0, 117, 33.46794128417969
0, 0, 118, 23.92092514038086
0, 0, 119, 20.70639801025391
0, 0, 120, 29.53764915466309
0, 0, 121, 30.85121917724609
0, 0, 122, 20.87933731079102
0, 0, 123, 21.09176635742188
0, 0, 124, 22.87136840820312
0, 0, 125, 18.42697906494141
0, 0, 126, 25.0701732635498
0, 0, 127, 18.74310302734375
0, 1, 0, 22.49353218078613
0, 1, 1, 19.70354461669922
0, 1, 2, 22.5777473449707
0, 1, 3, 18.70900726318359
0, 1, 4, 21.75650596618652
0, 1, 5, 23.81099891662598
0, 1, 6, 24.95540046691895
0, 1, 7, 27.61957931518555
0, 1, 8, 31.98955917358398
0, 1, 9, 32.62256240844727
0, 1, 10, 34.69111633300781
0, 1, 11, 37.98488235473633
0, 1, 12, 38.04745864868164
0, 1, 13, 45.51590728759766
0, 1, 14, 42.11899185180664
0, 1, 15, 45.95591354370117
0, 1, 16, 59.0151252746582
0, 1, 17, 64.41929626464844
0, 1, 18, 104.9490814208984
0, 1, 19, 400.1548767089844
0, 1, 20, 1037.877563476562
0, 1, 21, 1369.627563476562
0, 1, 22, 1476.110229492188
0, 1, 23, 1465.177001953125
0, 1, 24, 1450.82763671875
0, 1, 25, 1420.35595703125
0, 1, 26, 1472.80615234375
0, 1, 27, 1461.396728515625
0, 1, 28, 1492.16357421875
0, 1, 29, 1479.9072265625
0, 1, 30, 1503.67041015625
0, 1, 31, 1486.808349609375
0, 1, 32, 1412.15966796875
0, 1, 33, 1500.8896484375
0, 1, 34, 1500.9716796875
0, 1, 35, 1460.1201171875
0, 1, 36, 1488.249389648438
0, 1, 37, 1409.59765625
0, 1, 38, 1395.91796875
0, 1, 39, 1525.216674804688
0, 1, 40, 1462.625854492188
0, 1, 41, 1489.240112304688
0, 1, 42, 1503.067260742188
0, 1, 43, 1504.295288085938
0, 1, 44, 1451.621215820312
0, 1, 45, 1483.230712890625
0, 1, 46, 1416.817138671875
0, 1, 47, 1432.5947265625
0, 1, 48, 1433.409545898438
0, 1, 49, 1490.205932617188
0, 1, 50, 1443.345825195312
0, 1, 51, 1469.035400390625
0, 1, 52, 1476.749267578125
0, 1, 53, 1476.498168945312
0, 1, 54, 1505.646362304688
0, 1, 55, 1492.447631835938
0, 1, 56, 1477.951049804688
0, 1, 57, 1456.2861328125
0, 1, 58, 1430.6025390625
0, 1, 59, 1487.711303710938
0, 1, 60, 1468.591186523438
0, 1, 61, 1444.385131835938
0, 1, 62, 1451.280151367188
0, 1, 63, 1418.684814453125
0, 1, 64, 1475.056518554688
0, 1, 65, 1413.704223632812
0, 1, 66, 1437.372314453125
0, 1, 67, 1457.920166015625
0, 1, 68, 1388.860229492188
0, 1, 69, 1457.986206054688
0, 1, 70, 1432.805786132812
0, 1, 71, 1497.681274414062
0, 1, 72, 1437.33837890625
0, 1, 73, 1491.225952148438
0, 1, 74, 1464.578002929688
0, 1, 75, 1478.947631835938
0, 1, 76, 1455.665405273438
0, 1, 77, 1464.944213867188
0, 1, 78, 1454.50537109375
0, 1, 79, 1500.799194335938
0, 1, 80, 1445.15087890625
0, 1, 81, 1423.384155273438
0, 1, 82, 1474.072265625
0, 1, 83, 1464.307739257812
0, 1, 84, 1536.136962890625
0, 1, 85, 1446.842529296875
0, 1, 86, 1403.948120117188
0, 1, 87, 1420.423095703125
0, 1, 88, 1472.046630859375
0, 1, 89, 1472.76904296875
0, 1, 90, 1422.166015625
0, 1, 91, 1463.822021484375
0, 1, 92, 1418.056030273438
0, 1, 93, 1461.815307617188
0, 1, 94, 1468.957641601562
0, 1, 95, 1423.9921875
0, 1, 96, 1496.935913085938
0, 1, 97, 1511.956909179688
0, 1, 98, 1475.922729492188
0, 1, 99, 1420.697265625
0, 1, 100, 1445.7822265625
0, 1, 101, 1419.03515625
0, 1, 102, 1440.011596679688
0, 1, 103, 1414.350463867188
0, 1, 104, 1408.39501953125
0, 1, 105, 1465.322265625
0, 1, 106, 1366.09375
0, 1, 107, 1022.27587890625
0, 1, 108, 404.485595703125
0, 1, 109, 91.06307983398438
0, 1, 110, 61.00711059570312
0, 1, 111, 54.37350082397461
0, 1, 112, 48.73625183105469
0, 1, 113, 37.37801361083984
0, 1, 114, 36.49021530151367
0, 1, 115, 43.01051712036133
0, 1, 116, 33.32952499389648
0, 1, 117, 32.2340202331543
0, 1, 118, 39.95630645751953
0, 1, 119, 32.20780181884766
0, 1, 120, 28.70270538330078
0, 1, 121, 24.45501136779785
0, 1, 122, 19.61124610900879
0, 1, 123, 28.19174766540527
0, 1, 124, 25.43426322937012
0, 1, 125, 20.34004592895508
0, 1, 126, 16.05926513671875
0, 1, 127, 23.87266731262207
0, 2, 0, 18.31977272033691
0, 2, 1, 23.2955265045166
0, 2, 2, 15.42690181732178
0, 2, 3, 18.33827018737793
0, 2, 4, 20.10971832275391
0, 2, 5, 21.27725982666016
0, 2, 6, 24.06928253173828
0, 2, 7, 23.31764984130859
0, 2, 8, 25.39036560058594
0, 2, 9, 25.08363914489746
0, 2, 10, 28.26798439025879
0, 2, 11, 37.74884033203125
0, 2, 12, 43.30484390258789
0, 2, 13, 45.08123016357422
0, 2, 14, 44.8839111328125
0, 2, 15, 48.60290908813477
0, 2, 16, 61.53999328613281
0, 2, 17, 79.62281036376953
0, 2, 18, 145.2866516113281
0, 2, 19, 610.3396606445312
0, 2, 20, 1282.531860351562
0, 2, 21, 1433.649169921875
0, 2, 22, 1454.28271484375
0, 2, 23, 1403.583984375
0, 2, 24, 1438.6630859375
0, 2, 25, 1519.045654296875
0, 2, 26, 1556.273559570312
0, 2, 27, 1453.093627929688
0, 2, 28, 1458.1181640625
0, 2, 29, 1462.40478515625
0, 2, 30, 1464.384765625
0, 2, 31, 1537.281494140625
0, 2, 32, 1505.658081054688
0, 2, 33, 1443.995483398438
0, 2, 34, 1474.89208984375
0, 2, 35, 1473.791748046875
0, 2, 36, 1526.278930664062
0, 2, 37, 1542.77587890625
0, 2, 38, 1505.033935546875
0, 2, 39, 1462.569458007812
0, 2, 40, 1510.485107421875
0, 2, 41, 1521.9560546875
0, 2, 42, 1502.837158203125
0, 2, 43, 1550.635864257812
0, 2, 44, 1460.202758789062
0, 2, 45, 1485.896118164062
0, 2, 46, 1426.81640625
0, 2, 47, 1452.43359375
0, 2, 48, 1398.3896484375
0, 2, 49, 1465.484985351562
0, 2, 50, 1444.501708984375
0, 2, 51, 1445.59521484375
0, 2, 52, 1491.412109375
0, 2, 53, 1521.769897460938
0, 2, 54, 1521.813110351562
0, 2, 55, 1494.902709960938
0, 2, 56, 1464.174926757812
0, 2, 57, 1411.211669921875
0, 2, 58, 1457.217041015625
0, 2, 59, 1443.697875976562
0, 2, 60, 1473.0888671875
0, 2, 61, 1446.327880859375
0, 2, 62, 1469.8251953125
0, 2, 63, 1510.335327148438
0, 2, 64, 1456.29541015625
0, 2, 65, 1428.292114257812
0, 2, 66, 1487.731201171875
0, 2, 67, 1508.479736328125
0, 2, 68, 1539.527465820312
0, 2, 69, 1539.097778320312
0, 2, 70, 1509.447143554688
0, 2, 71, 1460.550903320312
0, 2, 72, 1520.64501953125
0, 2, 73, 1519.790649414062
0, 2, 74, 1489.046752929688
0, 2, 75, 1506.124389648438
0, 2, 76, 1455.769775390625
0, 2, 77, 1507.77099609375
0, 2, 78, 1436.197143554688
0, 2, 79, 1540.52783203125
0, 2, 80, 1480.108764648438
0, 2, 81, 1465.144287109375
0, 2, 82, 1555.931030273438
0, 2, 83, 1510.029663085938
0, 2, 84, 1494.495361328125
0, 2, 85, 1516.338623046875
0, 2, 86, 1540.9150390625
0, 2, 87, 1487.834838867188
0, 2, 88, 1534.256713867188
0, 2, 89, 1464.5546875
0, 2, 90, 1428.488647460938
0, 2, 91, 1404.606201171875
0, 2, 92, 1474.578857421875
0, 2, 93, 1498.588256835938
0, 2, 94, 1448.273681640625
0, 2, 95, 1543.772827148438
0, 2, 96, 1515.893432617188
0, 2, 97, 1457.4560546875
0, 2, 98, 1467.277099609375
0, 2, 99, 1407.100952148438
0, 2, 100, 1474.166381835938
0, 2, 101, 1478.4814453125
0, 2, 102, 1461.066284179688
0, 2, 103, 1391.047119140625
0, 2, 104, 1412.978759765625
0, 2, 105, 1391.7314453125
0, 2, 106, 1457.975708007812
0, 2, 107, 1273.763793945312
0, 2, 108, 623.0575561523438
0, 2, 109, 171.5630340576172
0, 2, 110, 66.07646942138672
0, 2, 111, 57.11584091186523
0, 2, 112, 45.03182983398438
0, 2, 113, 48.93449020385742
0, 2, 114, 39.55625534057617
0, 2, 115, 37.87711715698242
0, 2, 116, 38.06695556640625
0, 2, 117, 30.95317649841309
0, 2, 118, 27.39401817321777
0, 2, 119, 34.93405532836914
0, 2, 120, 32.31073760986328
0, 2, 121, 20.12849235534668
0, 2, 122, 23.67643737792969
0, 2, 123, 21.64198303222656
0, 2, 124, 25.46424865722656
0, 2, 125, 30.77506637573242
0, 2, 126, 20.49244117736816
0, 2, 127, 18.41251373291016
0, 3, 0, 14.65919494628906
0, 3, 1, 22.31143379211426
0, 3, 2, 21.83144760131836
0, 3, 3, 24.17825126647949
0, 3, 4, 16.08252334594727
0, 3, 5, 23.52942085266113
0, 3, 6, 33.25673294067383
0, 3, 7, 28.08205413818359
0, 3, 8, 28.83804702758789
0, 3, 9, 31.77665138244629
0, 3, 10, 34.74584197998047
0, 3, 11, 31.69037437438965
0, 3, 12, 40.67359924316406
0, 3, 13, 53.39493179321289
0, 3, 14, 60.25695037841797
0, 3, 15, 54.5545539855957
0, 3, 16, 71.39162445068359
0, 3, 17, 86.50901794433594
0, 3, 18, 237.3453369140625
0, 3, 19, 875.8916015625
0, 3, 20, 1384.124389648438
0, 3, 21, 1510.169921875
0, 3, 22, 1459.888793945312
0, 3, 23, 1451.15380859375
0, 3, 24, 1436.36962890625
0, 3, 25, 1460.445556640625
0, 3, 26, 1498.179931640625
0, 3, 27, 1472.085205078125
0, 3, 28, 1489.732177734375
0, 3, 29, 1541.496215820312
0, 3, 30, 1572.154541015625
0, 3, 31, 1514.258056640625
0, 3, 32, 1552.705078125
0, 3, 33, 1542.259033203125
0, 3, 34, 1485.940673828125
0, 3, 35, 1466.037109375
0, 3, 36, 1456.154663085938
0, 3, 37, 1514.089233398438
0, 3, 38, 1519.183471679688
0, 3, 39, 1437.955078125
0, 3, 40, 1447.522827148438
0, 3, 41, 1568.69384765625
0, 3, 42, 1463.414672851562
0, 3, 43, 1455.82958984375
0, 3, 44, 1450.691650390625
0, 3, 45, 1508.793090820312
0, 3, 46, 1508.2216796875
0, 3, 47, 1442.285522460938
0, 3, 48, 1509.086547851562
0, 3, 49, 1449.802856445312
0, 3, 50, 1488.111450195312
0, 3, 51, 1538.368530273438
0, 3, 52, 1541.559936523438
0, 3, 53, 1470.992431640625
0, 3, 54, 1534.573486328125
0, 3, 55, 1505.603393554688
0, 3, 56, 1435.788818359375
0, 3, 57, 1509.85302734375
0, 3, 58, 1514.111083984375
0, 3, 59, 1514.341796875
0, 3, 60, 1533.058471679688
0, 3, 61, 1484.27294921875
0, 3, 62, 1496.974731445312
0, 3, 63, 1492.876586914062
0, 3, 64, 1501.032104492188
0, 3, 65, 1515.656616210938
0, 3, 66, 1557.080810546875
0, 3, 67, 1545.185424804688
0, 3, 68, 1445.9423828125
0, 3, 69, 1467.490844726562
0, 3, 70, 1384.850463867188
0, 3, 71, 1464.426879882812
0, 3, 72, 1547.851928710938
0, 3, 73, 1501.300170898438
0, 3, 74, 1466.28466796875
0, 3, 75, 1457.828979492188
0, 3, 76, 1573.942749023438
0, 3, 77, 1540.578125
0, 3, 78, 1428.87353515625
0, 3, 79, 1493.5888671875
0, 3, 80, 1459.497802734375
0, 3, 81, 1471.0654296875
0, 3, 82, 1557.078247070312
0, 3, 83, 1512.998168945312
0, 3, 84, 1559.5654296875
0, 3, 85, 1475.363525390625
0, 3, 86, 1525.940795898438
0, 3, 87, 1539.925659179688
0, 3, 88, 1455.900512695312
0, 3, 89, 1452.054809570312
0, 3, 90, 1449.370849609375
0, 3, 91, 1422.595703125
0, 3, 92, 1509.01708984375
0, 3, 93, 1503.523193359375
0, 3, 94, 1520.482543945312
0, 3, 95, 1542.911865234375
0, 3, 96, 1520.011962890625
0, 3, 97, 1465.132934570312
0, 3, 98, 1439.4443359375
0, 3, 99, 1465.823852539062
0, 3, 100, 1470.402709960938
0, 3, 101, 1473.333862304688
0, 3, 102, 1520.4501953125
0, 3, 103, 1553.255737304688
0, 3, 104, 1504.542846679688
0, 3, 105, 1518.406616210938
0, 3, 106, 1477.30322265625
0, 3, 107, 1340.811889648438
0, 3, 108, 872.7731323242188
0, 3, 109, 269.3872985839844
0, 3, 110, 102.1943511962891
0, 3, 111, 61.79153442382812
0, 3, 112, 55.65871810913086
0, 3, 113, 55.64814376831055
0, 3, 114, 50.4629020690918
0, 3, 115, 52.69366455078125
0, 3, 116, 36.48360061645508
0, 3, 117, 36.12848281860352
0, 3, 118, 32.62041854858398
0, 3, 119, 29.3184814453125
0, 3, 120, 35.61698532104492
0, 3, 121, 18.89740180969238
0, 3, 122, 27.99914932250977
0, 3, 123, 27.94403648376465
0, 3, 124, 19.7052116394043
0, 3, 125, 26.71236038208008
0, 3, 126, 24.33652877807617
0, 3, 127, 18.47262191772461
0, 4, 0, 18.8546314239502
0, 4, 1, 29.69055366516113
0, 4, 2, 19.79010200500488
0, 4, 3, 21.34151268005371
0, 4, 4, 25.28956031799316
0, 4, 5, 24.19958877563477
0, 4, 6, 35.10179901123047
0, 4, 7, 34.04006195068359
0, 4, 8, 32.33937072753906
0, 4, 9, 33.19715118408203
0, 4, 10, 33.00608062744141
0, 4, 11, 39.48604202270508
0, 4, 12, 42.79715347290039
0, 4, 13, 51.82774353027344
0, 4, 14, 51.64313507080078
0, 4, 15, 59.7968864440918
0, 4, 16, 73.89661407470703
0, 4, 17, 112.5924530029297
0, 4, 18, 443.4605407714844
0, 4, 19, 1182.432495117188
0, 4, 20, 1446.290405273438
0, 4, 21, 1422.629760742188
0, 4, 22, 1431.755126953125
0, 4, 23, 1447.968994140625
0, 4, 24, 1473.486083984375
0, 4, 25, 1407.02392578125
0, 4, 26, 1540.864135742188
0, 4, 27, 1544.680297851562
0, 4, 28, 1509.653442382812
0, 4, 29, 1515.60400390625
0, 4, 30, 1521.40966796875
0, 4, 31, 1575.203247070312
0, 4, 32, 1520.354614257812
0, 4, 33, 1493.131958007812
0, 4, 34, 1469.894897460938
0, 4, 35, 1562.55859375
0, 4, 36, 1503.277465820312
0, 4, 37, 1508.139038085938
0, 4, 38, 1529.892822265625
0, 4, 39, 1469.007568359375
0, 4, 40, 1514.3056640625
0, 4, 41, 1585.111938476562
0, 4, 42, 1563.087524414062
0, 4, 43, 1471.332397460938
0, 4, 44, 1497.57080078125
0, 4, 45, 1518.734130859375
0, 4, 46, 1475.788818359375
0, 4, 47, 1503.233276367188
0, 4, 48, 1526.344360351562
0, 4, 49, 1467.417602539062
0, 4, 50, 1517.4248046875
0, 4, 51, 1492.767700195312
0, 4, 52, 1493.178100585938
0, 4, 53, 1459.146606445312
0, 4, 54, 1444.897583007812
0, 4, 55, 1523.84033203125
0, 4, 56, 1455.823364257812
0, 4, 57, 1501.2333984375
0, 4, 58, 1462.44580078125
0, 4, 59, 1465.365234375
0, 4, 60, 1530.284912109375
0, 4, 61, 1498.234375
0, 4, 62, 1507.329467773438
0, 4, 63, 1543.748168945312
0, 4, 64, 1596.392700195312
0, 4, 65, 1422.38330078125
0, 4, 66, 1514.944213867188
0, 4, 67, 1517.02099609375
0, 4, 68, 1496.896850585938
0, 4, 69, 1469.582397460938
0, 4, 70, 1544.34326171875
0, 4, 71, 1524.150268554688
0, 4, 72, 1533.23681640625
0, 4, 73, 1498.0234375
0, 4, 74, 1484.705444335938
0, 4, 75, 1533.38818359375
0, 4, 76, 1482.275634765625
0, 4, 77, 1499.875244140625
0, 4, 78, 1504.11328125
0, 4, 79, 1484.180908203125
0, 4, 80, 1512.533203125
0, 4, 81, 1524.9169921875
0, 4, 82, 1564.382080078125
0, 4, 83, 1505.070556640625
0, 4, 84, 1537.700439453125
0, 4, 85, 1554.98291015625
0, 4, 86, 1524.233032226562
0, 4, 87, 1493.410766601562
0, 4, 88, 1524.207885742188
0, 4, 89, 1482.475708007812
0, 4, 90, 1548.59521484375
0, 4, 91, 1554.70458984375
0, 4, 92, 1488.638793945312
0, 4, 93, 1516.984497070312
0, 4, 94, 1481.12451171875
0, 4, 95, 1508.925415039062
0, 4, 96, 1447.732788085938
0, 4, 97, 1411.767700195312
0, 4, 98, 1554.094848632812
0, 4, 99, 1510.047607421875
0, 4, 100, 1487.00439453125
0, 4, 101, 1453.048583984375
0, 4, 102, 1450.180053710938
0, 4, 103, 1513.189697265625
0, 4, 104, 1510.10595703125
0, 4, 105, 1557.676391601562
0, 4, 106, 1476.6025390625
0, 4, 107, 1452.79345703125
0, 4, 108, 1120.40478515625
0, 4, 109, 435.4975891113281
0, 4, 110, 98.59133911132812
0, 4, 111, 71.39276885986328
0, 4, 112, 63.53354644775391
0, 4, 113, 53.62996673583984
0, 4, 114, 51.13700485229492
0, 4, 115, 41.76721572875977
0, 4, 116, 38.55568695068359
0, 4, 117, 40.0152587890625
0, 4, 118, 43.2345085144043
0, 4, 119, 37.93638610839844
0, 4, 120, 30.36343002319336
0, 4, 121, 33.20011138916016
0, 4, 122, 30.84380149841309
0, 4, 123, 28.81409645080566
0, 4, 124, 20.07237434387207
0, 4, 125, 29.00982666015625
0, 4, 126, 21.25908470153809
0, 4, 127, 21.99546813964844
0, 5, 0, 23.12300109863281
0, 5, 1, 24.87693977355957
0, 5, 2, 27.97126388549805
0, 5, 3, 25.34328269958496
0, 5, 4, 21.81319427490234
0, 5, 5, 38.65439224243164
0, 5, 6, 29.10057640075684
0, 5, 7, 30.37904930114746
0, 5, 8, 37.18097686767578
0, 5, 9, 29.71701240539551
0, 5, 10, 35.60780715942383
0, 5, 11, 36.49038696289062
0, 5, 12, 40.53433990478516
0, 5, 13, 42.64965057373047
0, 5, 14, 66.88994598388672
0, 5, 15, 76.7664794921875
0, 5, 16, 79.18812561035156
0, 5, 17, 153.5350494384766
0, 5, 18, 672.708740234375
0, 5, 19, 1345.178588867188
0, 5, 20, 1523.345825195312
0, 5, 21, 1497.472045898438
0, 5, 22, 1495.265014648438
0, 5, 23, 1530.918701171875
0, 5, 24, 1466.395385742188
0, 5, 25, 1426.720581054688
0, 5, 26, 1527.766845703125
0, 5, 27, 1541.74072265625
0, 5, 28, 1482.837280273438
0, 5, 29, 1529.899536132812
0, 5, 30, 1498.78076171875
0, 5, 31, 1500.9443359375
0, 5, 32, 1597.196411132812
0, 5, 33, 1510.669677734375
0, 5, 34, 1484.555541992188
0, 5, 35, 1509.328369140625
0, 5, 36, 1444.436157226562
0, 5, 37, 1528.37060546875
0, 5, 38, 1549.420043945312
0, 5, 39, 1554.621215820312
0, 5, 40, 1498.013427734375
0, 5, 41, 1482.878295898438
0, 5, 42, 1539.924194335938
0, 5, 43, 1535.035400390625
0, 5, 44, 1546.630004882812
0, 5, 45, 1507.801879882812
0, 5, 46, 1487.390869140625
0, 5, 47, 1479.373657226562
0, 5, 48, 1500.134887695312
0, 5, 49, 1522.047485351562
0, 5, 50, 1498.648315429688
0, 5, 51, 1520.450561523438
0, 5, 52, 1430.581420898438
0, 5, 53, 1523.713012695312
0, 5, 54, 1519.753540039062
0, 5, 55, 1527.0673828125
0, 5, 56, 1484.412963867188
0, 5, 57, 1539.088745117188
0, 5, 58, 1507.801391601562
0, 5, 59, 1485.313354492188
0, 5, 60, 1538.3759765625
0, 5, 61, 1448.704833984375
0, 5, 62, 1583.490112304688
0, 5, 63, 1436.684814453125
0, 5, 64, 1486.51220703125
0, 5, 65, 1462.711303710938
0, 5, 66, 1527.435913085938
0, 5, 67, 1561.213623046875
0, 5, 68, 1462.195922851562
0, 5, 69, 1479.635009765625
0, 5, 70, 1490.235229492188
0, 5, 71, 1468.487182617188
0, 5, 72, 1544.933349609375
0, 5, 73, 1463.130493164062
0, 5, 74, 1492.538940429688
0, 5, 75, 1488.204956054688
0, 5, 76, 1483.37548828125
0, 5, 77, 1521.08349609375
0, 5, 78, 1528.803344726562
0, 5, 79, 1511.29833984375
0, 5, 80, 1516.702392578125
0, 5, 81, 1594.2392578125
0, 5, 82, 1521.627807617188
0, 5, 83, 1486.11767578125
0, 5, 84, 1530.843139648438
0, 5, 85, 1510.886352539062
0, 5, 86, 1558.365234375
0, 5, 87, 1472.161254882812
0, 5, 88, 1499.52783203125
0, 5, 89, 1480.715942382812
0, 5, 90, 1481.53125
0, 5, 91, 1552.280151367188
0, 5, 92, 1484.430786132812
0, 5, 93, 1557.504272460938
0, 5, 94, 1512.658813476562
0, 5, 95, 1561.982055664062
0, 5, 96, 1500.120361328125
0, 5, 97, 1511.394287109375
0, 5, 98, 1514.081787109375
0, 5, 99, 1539.05859375
0, 5, 100, 1431.093994140625
0, 5, 101, 1431.433227539062
0, 5, 102, 1516.743530273438
0, 5, 103, 1478.161743164062
0, 5, 104, 1461.577514648438
0, 5, 105, 1488.532836914062
0, 5, 106, 1457.56494140625
0, 5, 107, 1403.876831054688
0, 5, 108, 1292.400634765625
0, 5, 109, 720.4068603515625
0, 5, 110, 190.54736328125
0, 5, 111, 92.03910827636719
0, 5, 112, 81.52989959716797
0, 5, 113, 64.89276885986328
0, 5, 114, 54.78179931640625
0, 5, 115, 53.31269073486328
0, 5, 116, 43.62541198730469
0, 5, 117, 37.00232696533203
0, 5, 118, 42.50436782836914
0, 5, 119, 26.56402206420898
0, 5, 120, 26.55523872375488
0, 5, 121, 22.00070190429688
0, 5, 122, 29.94799613952637
0, 5, 123, 30.194580078125
0, 5, 124, 25.25027275085449
0, 5, 125, 25.83077621459961
0, 5, 126, 18.89740562438965
0, 5, 127, 22.68967247009277
0, 6, 0, 22.54389953613281
0, 6, 1, 28.78287887573242
0, 6, 2, 28.13224220275879
0, 6, 3, 28.90758514404297
0, 6, 4, 26.2286434173584
0, 6, 5, 32.0262451171875
0, 6, 6, 34.63885116577148
0, 6, 7, 28.61318016052246
0, 6, 8, 30.77039527893066
0, 6, 9, 35.41287994384766
0, 6, 10, 37.82262802124023
0, 6, 11, 38.89595413208008
0, 6, 12, 41.43947982788086
0, 6, 13, 59.23336029052734
0, 6, 14, 61.76915740966797
0, 6, 15, 82.72061920166016
0, 6, 16, 113.1361541748047
0, 6, 17, 302.3963928222656
0, 6, 18, 903.255615234375
0, 6, 19, 1378.499877929688
0, 6, 20, 1450.199584960938
0, 6, 21, 1529.659912109375
0, 6, 22, 1501.216918945312
0, 6, 23, 1529.2998046875
0, 6, 24, 1477.136962890625
0, 6, 25, 1528.767822265625
0, 6, 26, 1516.9208984375
0, 6, 27, 1519.639892578125
0, 6, 28, 1549.592895507812
0, 6, 29, 1575.436767578125
0, 6, 30, 1516.963989257812
0, 6, 31, 1496.2978515625
0, 6, 32, 1523.944580078125
0, 6, 33, 1493.995971679688
0, 6, 34, 1561.869262695312
0, 6, 35, 1499.416381835938
0, 6, 36, 1438.167846679688
0, 6, 37, 1544.319580078125
0, 6, 38, 1522.02978515625
0, 6, 39, 1525.03857421875
0, 6, 40, 1461.21875
0, 6, 41, 1440.961669921875
0, 6, 42, 1521.1494140625
0, 6, 43, 1490.216064453125
0, 6, 44, 1430.9560546875
0, 6, 45, 1548.198120117188
0, 6, 46, 1549.35986328125
0, 6, 47, 1502.828247070312
0, 6, 48, 1527.15380859375
0, 6, 49, 1512.80322265625
0, 6, 50, 1577.816650390625
0, 6, 51, 1507.2626953125
0, 6, 52, 1566.705444335938
0, 6, 53, 1475.26904296875
0, 6, 54, 1498.091430664062
0, 6, 55, 1566.918212890625
0, 6, 56, 1520.749755859375
0, 6, 57, 1502.047485351562
0, 6, 58, 1467.815185546875
0, 6, 59, 1520.940063476562
0, 6, 60, 1472.248657226562
0, 6, 61, 1570.19384765625
0, 6, 62, 1543.200805664062
0, 6, 63, 1494.729248046875
0, 6, 64, 1410.764404296875
0, 6, 65, 1495.794311523438
0, 6, 66, 1512.58349609375
0, 6, 67, 1511.944702148438
0, 6, 68, 1547.43603515625
0, 6, 69, 1484.6943359375
0, 6, 70, 1522.077758789062
0, 6, 71, 1467.500366210938
0, 6, 72, 1590.2744140625
0, 6, 73, 1493.270141601562
0, 6, 74, 1560.084594726562
0, 6, 75, 1540.5126953125
0, 6, 76, 1569.796264648438
0, 6, 77, 1503.104858398438
0, 6, 78, 1448.557983398438
0, 6, 79, 1553.340087890625
0, 6, 80, 1483.687622070312
0, 6, 81, 1484.569458007812
0, 6, 82, 1503.745483398438
0, 6, 83, 1527.56005859375
0, 6, 84, 1523.486083984375
0, 6, 85, 1535.346801757812
0, 6, 86, 1538.1435546875
0, 6, 87, 1570.448974609375
0, 6, 88, 1474.854858398438
0, 6, 89, 1561.456909179688
0, 6, 90, 1495.158569335938
0, 6, 91, 1543.118530273438
0, 6, 92, 1486.715087890625
0, 6, 93, 1497.780029296875
0, 6, 94, 1467.41064453125
0, 6, 95, 1508.129028320312
0, 6, 96, 1519.141723632812
0, 6, 97, 1501.327880859375
0, 6, 98, 1496.211181640625
0, 6, 99, 1483.333740234375
0, 6, 100, 1523.10888671875
0, 6, 101, 1517.057495117188
0, 6, 102, 1541.174072265625
0, 6, 103, 1499.099487304688
0, 6, 104, 1462.246704101562
0, 6, 105, 1485.674926757812
0, 6, 106, 1494.94921875
0, 6, 107, 1503.321411132812
0, 6, 108, 1407.305908203125
0, 6, 109, 925.6729736328125
0, 6, 110, 283.1053161621094
0, 6, 111, 90.96890258789062
0, 6, 112, 75.3282470703125
0, 6, 113, 59.01087951660156
0, 6, 114, 54.55770874023438
0, 6, 115, 47.27837371826172
0, 6, 116, 40.25126266479492
0, 6, 117, 41.53472137451172
0, 6, 118, 37.13129425048828
0, 6, 119, 40.52959823608398
0, 6, 120, 32.39174652099609
0, 6, 121, 28.55353927612305
0, 6, 122, 23.00444793701172
0, 6, 123, 22.4639892578125
0, 6, 124, 32.78952407836914
0, 6, 125, 32.70256423950195
0, 6, 126, 24.10889053344727
0, 6, 127, 25.59008598327637
0, 7, 0, 22.06081008911133
0, 7, 1, 28.99720764160156
0, 7, 2, 20.38270378112793
0, 7, 3, 26.13681030273438
0, 7, 4, 30.88889312744141
0, 7, 5, 41.0257568359375
0, 7, 6, 31.15509605407715
0, 7, 7, 37.43875122070312
0, 7, 8, 28.58285713195801
0, 7, 9, 30.93151473999023
0, 7, 10, 47.12822341918945
0, 7, 11, 44.562744140625
0, 7, 12, 45.35409927368164
0, 7, 13, 46.76376724243164
0, 7, 14, 63.69205474853516
0, 7, 15, 85.04008483886719
0, 7, 16, 135.2686767578125
0, 7, 17, 459.8583984375
0, 7, 18, 1101.117919921875
0, 7, 19, 1499.696899414062
0, 7, 20, 1485.358520507812
0, 7, 21, 1366.654174804688
0, 7, 22, 1481.923828125
0, 7, 23, 1459.212768554688
0, 7, 24, 1505.779174804688
0, 7, 25, 1592.418701171875
0, 7, 26, 1515.627807617188
0, 7, 27, 1510.579223632812
0, 7, 28, 1543.250122070312
0, 7, 29, 1584.38623046875
0, 7, 30, 1547.48681640625
0, 7, 31, 1438.12939453125
0, 7, 32, 1540.869384765625
0, 7, 33, 1492.549072265625
0, 7, 34, 1482.941040039062
0, 7, 35, 1517.713134765625
0, 7, 36, 1470.022827148438
0, 7, 37, 1603.165161132812
0, 7, 38, 1504.68408203125
0, 7, 39, 1488.607055664062
0, 7, 40, 1540.067504882812
0, 7, 41, 1468.4990234375
0, 7, 42, 1489.505249023438
0, 7, 43, 1442.982177734375
0, 7, 44, 1488.118896484375
0, 7, 45, 1469.195678710938
0, 7, 46, 1512.068115234375
0, 7, 47, 1569.236083984375
0, 7, 48, 1525.87841796875
0, 7, 49, 1542.300170898438
0, 7, 50, 1516.223510742188
0, 7, 51, 1497.425537109375
0, 7, 52, 1518.415771484375
0, 7, 53, 1491.992065429688
0, 7, 54, 1589.40185546875
0, 7, 55, 1469.882690429688
0, 7, 56, 1550.873291015625
0, 7, 57, 1511.209716796875
0, 7, 58, 1547.915893554688
0, 7, 59, 1542.837158203125
0, 7, 60, 1546.819702148438
0, 7, 61, 1489.38623046875
0, 7, 62, 1437.06787109375
0, 7, 63, 1514.12255859375
0, 7, 64, 1543.689575195312
0, 7, 65, 1525.002685546875
0, 7, 66, 1537.889892578125
0, 7, 67, 1579.11376953125
0, 7, 68, 1529.7373046875
0, 7, 69, 1517.961669921875
0, 7, 70, 1498.064086914062
0, 7, 71, 1521.407836914062
0, 7, 72, 1526.219604492188
0, 7, 73, 1514.069580078125
0, 7, 74, 1568.068969726562
0, 7, 75, 1534.240844726562
0, 7, 76, 1560.654663085938
0, 7, 77, 1509.782836914062
0, 7, 78, 1506.67724609375
0, 7, 79, 1425.70166015625
0, 7, 80, 1490.266845703125
0, 7, 81, 1500.4453125
0, 7, 82, 1532.695678710938
0, 7, 83, 1544.306762695312
0, 7, 84, 1584.3896484375
0, 7, 85, 1476.80859375
0, 7, 86, 1501.9130859375
0, 7, 87, 1506.333618164062
0, 7, 88, 1500.014282226562
0, 7, 89, 1553.703979492188
0, 7, 90, 1517.373413085938
0, 7, 91, 1564.464599609375
0, 7, 92, 1530.876831054688
0, 7, 93, 1554.580444335938
0, 7, 94, 1536.260009765625
0, 7, 95, 1504.482421875
0, 7, 96, 1510.563720703125
0, 7, 97, 1433.452270507812
0, 7, 98, 1483.990112304688
0, 7, 99, 1526.696533203125
0, 7, 100, 1424.143920898438
0, 7, 101, 1465.202026367188
0, 7, 102, 1448.441162109375
0, 7, 103, 1431.507568359375
0, 7, 104, 1489.36767578125
0, 7, 105, 1523.430053710938
0, 7, 106, 1565.65234375
0, 7, 107, 1480.872192382812
0, 7, 108, 1405.859375
0, 7, 109, 1149.435302734375
0, 7, 110, 471.3240661621094
0, 7, 111, 125.8137741088867
0, 7, 112, 79.43684387207031
0, 7, 113, 68.05302429199219
0, 7, 114, 58.49129486083984
0, 7, 115, 49.77392196655273
0, 7, 116, 52.81045532226562
0, 7, 117, 43.01023483276367
0, 7, 118, 40.91945648193359
0, 7, 119, 35.02593231201172
0, 7, 120, 21.34330177307129
0, 7, 121, 28.75525283813477
0, 7, 122, 36.53696060180664
0, 7, 123, 36.3398551940918
0, 7, 124, 36.25627517700195
0, 7, 125, 26.8218879699707
0, 7, 126, 24.82465553283691
0, 7, 127, 25.17703628540039
0, 8, 0, 15.91268444061279
0, 8, 1, 22.32577133178711
0, 8, 2, 26.99511909484863
0, 8, 3, 35.56293487548828
0, 8, 4, 27.76188278198242
0, 8, 5, 30.00091171264648
0, 8, 6, 31.44959449768066
0, 8, 7, 35.27694320678711
0, 8, 8, 33.67849731445312
0, 8, 9, 43.20176696777344
0, 8, 10, 41.26539993286133
0, 8, 11, 39.53206634521484
0, 8, 12, 52.00885009765625
0, 8, 13, 69.84806060791016
0, 8, 14, 71.48368835449219
0, 8, 15, 79.52223205566406
0, 8, 16, 163.2061614990234
0, 8, 17, 675.0374145507812
0, 8, 18, 1272.660522460938
0, 8, 19, 1442.409057617188
0, 8, 20, 1419.477172851562
0, 8, 21, 1406.535888671875
0, 8, 22, 1489.677856445312
0, 8, 23, 1480.652954101562
0, 8, 24, 1441.134521484375
0, 8, 25, 1454.949462890625
0, 8, 26, 1516.36865234375
0, 8, 27, 1518.39892578125
0, 8, 28, 1477.49658203125
0, 8, 29, 1503.476806640625
0, 8, 30, 1484.11962890625
0, 8, 31, 1535.420043945312
0, 8, 32, 1512.665771484375
0, 8, 33, 1481.837524414062
0, 8, 34, 1534.345825195312
0, 8, 35, 1443.256713867188
0, 8, 36, 1499.347778320312
0, 8, 37, 1560.701782226562
0, 8, 38, 1555.441040039062
0, 8, 39, 1490.20068359375
0, 8, 40, 1531.454223632812
0, 8, 41, 1484.856811523438
0, 8, 42, 1540.557983398438
0, 8, 43, 1431.9619140625
0, 8, 44, 1534.363403320312
0, 8, 45, 1514.224243164062
0, 8, 46, 1595.859008789062
0, 8, 47, 1584.840209960938
