# TOPAS Version: 3.1.p3
# Parameter File: batch_inserts_172.txt
# Results for scorer Readout_Adipose
# Scored in component: MyBox
# X in 1 bin  of 0.75 cm
# Y in 512 bins of 0.0783984 cm
# Z in 128 bins of 0.078125 cm
# EnergyDeposit ( MeV ) : Sum   
0, 0, 0, 5.97830867767334
0, 0, 1, 3.674265623092651
0, 0, 2, 2.508963108062744
0, 0, 3, 1.201672554016113
0, 0, 4, 3.396549463272095
0, 0, 5, 2.663834571838379
0, 0, 6, 7.659981727600098
0, 0, 7, 11.33866786956787
0, 0, 8, 2.968411684036255
0, 0, 9, 5.175453662872314
0, 0, 10, 6.83135986328125
0, 0, 11, 4.522600173950195
0, 0, 12, 4.820534229278564
0, 0, 13, 7.810182571411133
0, 0, 14, 7.620484352111816
0, 0, 15, 9.090287208557129
0, 0, 16, 8.281771659851074
0, 0, 17, 8.867701530456543
0, 0, 18, 13.55029964447021
0, 0, 19, 42.84479141235352
0, 0, 20, 138.5130462646484
0, 0, 21, 223.4789123535156
0, 0, 22, 248.1382904052734
0, 0, 23, 256.66748046875
0, 0, 24, 251.045166015625
0, 0, 25, 258.3474426269531
0, 0, 26, 234.2190093994141
0, 0, 27, 240.6004333496094
0, 0, 28, 273.9061279296875
0, 0, 29, 252.2488861083984
0, 0, 30, 228.6008605957031
0, 0, 31, 243.12548828125
0, 0, 32, 264.1599426269531
0, 0, 33, 260.1581420898438
0, 0, 34, 289.5936279296875
0, 0, 35, 267.51708984375
0, 0, 36, 247.9803009033203
0, 0, 37, 251.9685516357422
0, 0, 38, 269.5261535644531
0, 0, 39, 228.9483795166016
0, 0, 40, 240.6820831298828
0, 0, 41, 264.8733825683594
0, 0, 42, 228.7047576904297
0, 0, 43, 259.7074890136719
0, 0, 44, 253.02294921875
0, 0, 45, 253.1907043457031
0, 0, 46, 243.2121276855469
0, 0, 47, 253.1042633056641
0, 0, 48, 267.3050231933594
0, 0, 49, 273.7703857421875
0, 0, 50, 249.9082489013672
0, 0, 51, 254.3881378173828
0, 0, 52, 273.4319458007812
0, 0, 53, 292.1260070800781
0, 0, 54, 242.1174774169922
0, 0, 55, 239.4604949951172
0, 0, 56, 276.7862854003906
0, 0, 57, 263.1819152832031
0, 0, 58, 245.0220642089844
0, 0, 59, 269.9046325683594
0, 0, 60, 234.3760528564453
0, 0, 61, 245.2355804443359
0, 0, 62, 259.4509887695312
0, 0, 63, 267.7037963867188
0, 0, 64, 254.9362640380859
0, 0, 65, 260.7608642578125
0, 0, 66, 276.234130859375
0, 0, 67, 245.9245910644531
0, 0, 68, 258.1142578125
0, 0, 69, 261.3219604492188
0, 0, 70, 271.64306640625
0, 0, 71, 239.8462066650391
0, 0, 72, 250.4905242919922
0, 0, 73, 259.5316162109375
0, 0, 74, 249.9479217529297
0, 0, 75, 240.7740631103516
0, 0, 76, 228.9790649414062
0, 0, 77, 261.1251525878906
0, 0, 78, 258.2854309082031
0, 0, 79, 278.3920593261719
0, 0, 80, 215.0338439941406
0, 0, 81, 267.6959838867188
0, 0, 82, 257.8492126464844
0, 0, 83, 246.0618743896484
0, 0, 84, 270.1538391113281
0, 0, 85, 233.3025512695312
0, 0, 86, 253.1491546630859
0, 0, 87, 251.2664947509766
0, 0, 88, 260.6580200195312
0, 0, 89, 283.0686340332031
0, 0, 90, 243.2620086669922
0, 0, 91, 282.1604919433594
0, 0, 92, 252.1922912597656
0, 0, 93, 250.8476715087891
0, 0, 94, 251.4892272949219
0, 0, 95, 249.8643341064453
0, 0, 96, 275.4521179199219
0, 0, 97, 273.0077209472656
0, 0, 98, 272.9645080566406
0, 0, 99, 258.8345336914062
0, 0, 100, 257.6791687011719
0, 0, 101, 227.5405120849609
0, 0, 102, 232.390380859375
0, 0, 103, 269.7231750488281
0, 0, 104, 254.4724731445312
0, 0, 105, 252.3233489990234
0, 0, 106, 245.4186553955078
0, 0, 107, 151.5157165527344
0, 0, 108, 37.75768280029297
0, 0, 109, 11.11319637298584
0, 0, 110, 12.12453842163086
0, 0, 111, 7.865044593811035
0, 0, 112, 6.785225868225098
0, 0, 113, 6.782178401947021
0, 0, 114, 5.839741706848145
0, 0, 115, 3.918368816375732
0, 0, 116, 5.980547904968262
0, 0, 117, 6.053450584411621
0, 0, 118, 6.222393989562988
0, 0, 119, 3.703522443771362
0, 0, 120, 4.483910083770752
0, 0, 121, 3.274133920669556
0, 0, 122, 3.308385133743286
0, 0, 123, 4.491522312164307
0, 0, 124, 4.494087219238281
0, 0, 125, 3.6696937084198
0, 0, 126, 4.354195117950439
0, 0, 127, 4.897372245788574
0, 1, 0, 6.5242600440979
0, 1, 1, 2.766873359680176
0, 1, 2, 4.812895774841309
0, 1, 3, 1.878496885299683
0, 1, 4, 2.902398586273193
0, 1, 5, 4.749722957611084
0, 1, 6, 7.332935810089111
0, 1, 7, 4.939779758453369
0, 1, 8, 7.523825168609619
0, 1, 9, 5.25165843963623
0, 1, 10, 8.103485107421875
0, 1, 11, 11.33135604858398
0, 1, 12, 8.85390567779541
0, 1, 13, 11.94648265838623
0, 1, 14, 7.718731880187988
0, 1, 15, 7.660851001739502
0, 1, 16, 10.95954704284668
0, 1, 17, 11.86415672302246
0, 1, 18, 21.1133975982666
0, 1, 19, 64.83681488037109
0, 1, 20, 199.8990173339844
0, 1, 21, 256.2888793945312
0, 1, 22, 297.0469360351562
0, 1, 23, 283.0383911132812
0, 1, 24, 274.8612060546875
0, 1, 25, 291.0765686035156
0, 1, 26, 269.4506225585938
0, 1, 27, 306.5732421875
0, 1, 28, 299.5433044433594
0, 1, 29, 295.3916625976562
0, 1, 30, 282.4007568359375
0, 1, 31, 291.1415405273438
0, 1, 32, 289.4307861328125
0, 1, 33, 294.8577270507812
0, 1, 34, 292.6124267578125
0, 1, 35, 278.005615234375
0, 1, 36, 307.4785461425781
0, 1, 37, 294.9385681152344
0, 1, 38, 278.5806884765625
0, 1, 39, 296.2713623046875
0, 1, 40, 265.9444885253906
0, 1, 41, 287.2788391113281
0, 1, 42, 289.7503051757812
0, 1, 43, 332.863525390625
0, 1, 44, 278.5947570800781
0, 1, 45, 293.2283935546875
0, 1, 46, 259.7863464355469
0, 1, 47, 311.7133178710938
0, 1, 48, 285.3315124511719
0, 1, 49, 303.52197265625
0, 1, 50, 265.2554321289062
0, 1, 51, 275.2247619628906
0, 1, 52, 297.6048583984375
0, 1, 53, 304.3899230957031
0, 1, 54, 274.3931884765625
0, 1, 55, 292.6821899414062
0, 1, 56, 279.3657531738281
0, 1, 57, 299.1905822753906
0, 1, 58, 309.4650573730469
0, 1, 59, 289.6107788085938
0, 1, 60, 298.6058044433594
0, 1, 61, 275.0084838867188
0, 1, 62, 310.9849853515625
0, 1, 63, 285.4576721191406
0, 1, 64, 288.9100952148438
0, 1, 65, 295.2327880859375
0, 1, 66, 291.4713134765625
0, 1, 67, 291.8531494140625
0, 1, 68, 278.5799560546875
0, 1, 69, 280.8299865722656
0, 1, 70, 270.9414367675781
0, 1, 71, 274.7287902832031
0, 1, 72, 287.5112915039062
0, 1, 73, 302.3241882324219
0, 1, 74, 303.2084655761719
0, 1, 75, 295.8310852050781
0, 1, 76, 284.7059020996094
0, 1, 77, 291.3380432128906
0, 1, 78, 296.5021362304688
0, 1, 79, 300.4442138671875
0, 1, 80, 296.6846008300781
0, 1, 81, 300.9799194335938
0, 1, 82, 283.5462341308594
0, 1, 83, 332.7981262207031
0, 1, 84, 308.5718994140625
0, 1, 85, 253.1141357421875
0, 1, 86, 293.4083251953125
0, 1, 87, 289.9756774902344
0, 1, 88, 299.1382446289062
0, 1, 89, 294.8833923339844
0, 1, 90, 270.1531066894531
0, 1, 91, 316.9681396484375
0, 1, 92, 290.27294921875
0, 1, 93, 286.2090148925781
0, 1, 94, 303.1019592285156
0, 1, 95, 283.8828430175781
0, 1, 96, 284.4084777832031
0, 1, 97, 300.2096252441406
0, 1, 98, 278.2892150878906
0, 1, 99, 266.7521362304688
0, 1, 100, 275.6281127929688
0, 1, 101, 283.075439453125
0, 1, 102, 278.3995361328125
0, 1, 103, 282.2528991699219
0, 1, 104, 305.4859313964844
0, 1, 105, 296.2807922363281
0, 1, 106, 260.4714660644531
0, 1, 107, 191.3698425292969
0, 1, 108, 82.60550689697266
0, 1, 109, 23.8471565246582
0, 1, 110, 12.5551176071167
0, 1, 111, 9.208056449890137
0, 1, 112, 11.4930419921875
0, 1, 113, 7.261543750762939
0, 1, 114, 6.445858001708984
0, 1, 115, 6.638648509979248
0, 1, 116, 10.10783004760742
0, 1, 117, 6.072442531585693
0, 1, 118, 6.117647647857666
0, 1, 119, 4.533475399017334
0, 1, 120, 3.590837717056274
0, 1, 121, 2.711875677108765
0, 1, 122, 3.011430025100708
0, 1, 123, 2.387362241744995
0, 1, 124, 8.68560791015625
0, 1, 125, 4.752679347991943
0, 1, 126, 2.036452293395996
0, 1, 127, 2.403751850128174
0, 2, 0, 4.148036956787109
0, 2, 1, 3.880388021469116
0, 2, 2, 3.868269681930542
0, 2, 3, 5.561976909637451
0, 2, 4, 3.391474723815918
0, 2, 5, 4.655311107635498
0, 2, 6, 3.73302698135376
0, 2, 7, 6.147208690643311
0, 2, 8, 4.781241416931152
0, 2, 9, 4.358651161193848
0, 2, 10, 8.146588325500488
0, 2, 11, 8.137722969055176
0, 2, 12, 5.935236930847168
0, 2, 13, 8.99541187286377
0, 2, 14, 10.76369380950928
0, 2, 15, 7.191900253295898
0, 2, 16, 10.08145618438721
0, 2, 17, 16.05136299133301
0, 2, 18, 30.30393600463867
0, 2, 19, 114.7543792724609
0, 2, 20, 247.9025268554688
0, 2, 21, 270.8260192871094
0, 2, 22, 316.2101440429688
0, 2, 23, 300.2989196777344
0, 2, 24, 286.9265747070312
0, 2, 25, 302.3437194824219
0, 2, 26, 295.4115905761719
0, 2, 27, 275.3670959472656
0, 2, 28, 274.1112060546875
0, 2, 29, 276.0761108398438
0, 2, 30, 287.9214477539062
0, 2, 31, 277.55615234375
0, 2, 32, 295.7984924316406
0, 2, 33, 284.5784912109375
0, 2, 34, 330.4306640625
0, 2, 35, 289.978271484375
0, 2, 36, 304.7897644042969
0, 2, 37, 316.1040344238281
0, 2, 38, 311.5061645507812
0, 2, 39, 266.93701171875
0, 2, 40, 308.255859375
0, 2, 41, 291.1437377929688
0, 2, 42, 302.930908203125
0, 2, 43, 313.1271667480469
0, 2, 44, 313.1116638183594
0, 2, 45, 326.5927429199219
0, 2, 46, 286.3059997558594
0, 2, 47, 302.7164306640625
0, 2, 48, 279.9520874023438
0, 2, 49, 279.38818359375
0, 2, 50, 294.35107421875
0, 2, 51, 284.1586303710938
0, 2, 52, 272.6463012695312
0, 2, 53, 285.6067504882812
0, 2, 54, 279.8745727539062
0, 2, 55, 275.5625610351562
0, 2, 56, 301.8699035644531
0, 2, 57, 292.7366638183594
0, 2, 58, 304.0669250488281
0, 2, 59, 292.5394592285156
0, 2, 60, 319.6130065917969
0, 2, 61, 302.1053161621094
0, 2, 62, 315.1305541992188
0, 2, 63, 305.6649780273438
0, 2, 64, 295.1501770019531
0, 2, 65, 312.6853942871094
0, 2, 66, 280.9192810058594
0, 2, 67, 291.3842163085938
0, 2, 68, 296.7816467285156
0, 2, 69, 310.1260986328125
0, 2, 70, 334.3247375488281
0, 2, 71, 284.2931823730469
0, 2, 72, 301.0731506347656
0, 2, 73, 311.1992492675781
0, 2, 74, 289.0506286621094
0, 2, 75, 305.3526611328125
0, 2, 76, 287.9822692871094
0, 2, 77, 299.9951782226562
0, 2, 78, 313.7900390625
0, 2, 79, 307.9583740234375
0, 2, 80, 297.2698059082031
0, 2, 81, 280.8143310546875
0, 2, 82, 318.9927062988281
0, 2, 83, 312.4819641113281
0, 2, 84, 288.1315307617188
0, 2, 85, 282.6842956542969
0, 2, 86, 325.0708923339844
0, 2, 87, 285.9049987792969
0, 2, 88, 281.1494445800781
0, 2, 89, 294.3428955078125
0, 2, 90, 295.0118713378906
0, 2, 91, 276.1890258789062
0, 2, 92, 305.7218627929688
0, 2, 93, 317.3028869628906
0, 2, 94, 292.5848083496094
0, 2, 95, 315.9146423339844
0, 2, 96, 316.5089721679688
0, 2, 97, 289.39453125
0, 2, 98, 294.1746520996094
0, 2, 99, 274.5108032226562
0, 2, 100, 305.8961486816406
0, 2, 101, 303.7769165039062
0, 2, 102, 296.5630493164062
0, 2, 103, 292.9521179199219
0, 2, 104, 291.9620361328125
0, 2, 105, 273.3388977050781
0, 2, 106, 296.9890747070312
0, 2, 107, 271.2403259277344
0, 2, 108, 116.8870086669922
0, 2, 109, 32.42580413818359
0, 2, 110, 10.91650295257568
0, 2, 111, 10.75804042816162
0, 2, 112, 9.170937538146973
0, 2, 113, 10.59438896179199
0, 2, 114, 9.682862281799316
0, 2, 115, 10.35552597045898
0, 2, 116, 6.861000061035156
0, 2, 117, 9.404045104980469
0, 2, 118, 2.289819002151489
0, 2, 119, 2.174198150634766
0, 2, 120, 7.052618980407715
0, 2, 121, 4.158438682556152
0, 2, 122, 4.042938232421875
0, 2, 123, 5.506264686584473
0, 2, 124, 4.295478343963623
0, 2, 125, 4.155996322631836
0, 2, 126, 3.317695379257202
0, 2, 127, 4.964252948760986
0, 3, 0, 3.156103372573853
0, 3, 1, 4.447215557098389
0, 3, 2, 4.446432113647461
0, 3, 3, 2.623164176940918
0, 3, 4, 5.618479251861572
0, 3, 5, 7.48812198638916
0, 3, 6, 6.599649429321289
0, 3, 7, 5.538659572601318
0, 3, 8, 4.569674015045166
0, 3, 9, 7.228726863861084
0, 3, 10, 6.676471710205078
0, 3, 11, 4.913862228393555
0, 3, 12, 10.37391185760498
0, 3, 13, 14.75435733795166
0, 3, 14, 11.14979267120361
0, 3, 15, 14.04373550415039
0, 3, 16, 12.6269006729126
0, 3, 17, 21.23069190979004
0, 3, 18, 56.00709533691406
0, 3, 19, 174.4197540283203
0, 3, 20, 268.2970581054688
0, 3, 21, 269.5857543945312
0, 3, 22, 284.0040893554688
0, 3, 23, 287.788818359375
0, 3, 24, 286.2934265136719
0, 3, 25, 268.3638000488281
0, 3, 26, 303.6558837890625
0, 3, 27, 294.7386169433594
0, 3, 28, 279.5399780273438
0, 3, 29, 339.5491333007812
0, 3, 30, 315.4146118164062
0, 3, 31, 285.3170776367188
0, 3, 32, 307.9215393066406
0, 3, 33, 315.4587707519531
0, 3, 34, 321.1026000976562
0, 3, 35, 306.9027709960938
0, 3, 36, 270.4733581542969
0, 3, 37, 312.3485717773438
0, 3, 38, 305.7502136230469
0, 3, 39, 290.5942687988281
0, 3, 40, 269.4040832519531
0, 3, 41, 302.3282470703125
0, 3, 42, 284.8682250976562
0, 3, 43, 307.015380859375
0, 3, 44, 310.7919616699219
0, 3, 45, 291.0201110839844
0, 3, 46, 330.4993896484375
0, 3, 47, 299.7077331542969
0, 3, 48, 304.5649719238281
0, 3, 49, 277.6174011230469
0, 3, 50, 290.595703125
0, 3, 51, 275.6170349121094
0, 3, 52, 314.7744140625
0, 3, 53, 285.7763061523438
0, 3, 54, 286.1050109863281
0, 3, 55, 285.814208984375
0, 3, 56, 297.5054321289062
0, 3, 57, 287.6548461914062
0, 3, 58, 306.9810791015625
0, 3, 59, 295.1471862792969
0, 3, 60, 297.9736022949219
0, 3, 61, 264.476806640625
0, 3, 62, 282.7646179199219
0, 3, 63, 307.1634216308594
0, 3, 64, 315.7880249023438
0, 3, 65, 305.9277038574219
0, 3, 66, 314.418212890625
0, 3, 67, 318.9931945800781
0, 3, 68, 280.3812561035156
0, 3, 69, 285.1629943847656
0, 3, 70, 288.7130737304688
0, 3, 71, 300.565673828125
0, 3, 72, 269.431396484375
0, 3, 73, 306.7028198242188
0, 3, 74, 290.9656372070312
0, 3, 75, 288.6109924316406
0, 3, 76, 305.2251281738281
0, 3, 77, 314.1884765625
0, 3, 78, 303.6036987304688
0, 3, 79, 282.5323486328125
0, 3, 80, 291.3595886230469
0, 3, 81, 311.2636413574219
0, 3, 82, 318.172607421875
0, 3, 83, 301.4811401367188
0, 3, 84, 310.1125793457031
0, 3, 85, 292.0472106933594
0, 3, 86, 302.5280456542969
0, 3, 87, 296.7764587402344
0, 3, 88, 298.7419128417969
0, 3, 89, 295.4910583496094
0, 3, 90, 277.2515563964844
0, 3, 91, 284.2753601074219
0, 3, 92, 303.7024536132812
0, 3, 93, 312.34326171875
0, 3, 94, 299.3276977539062
0, 3, 95, 333.7737121582031
0, 3, 96, 291.0643310546875
0, 3, 97, 285.174560546875
0, 3, 98, 277.2998046875
0, 3, 99, 260.859130859375
0, 3, 100, 283.5339660644531
0, 3, 101, 295.6253662109375
0, 3, 102, 275.1419677734375
0, 3, 103, 321.6379699707031
0, 3, 104, 308.9053649902344
0, 3, 105, 286.9667358398438
0, 3, 106, 303.9253845214844
0, 3, 107, 282.5158996582031
0, 3, 108, 167.1658477783203
0, 3, 109, 56.56118774414062
0, 3, 110, 17.13440322875977
0, 3, 111, 12.33294486999512
0, 3, 112, 12.64179611206055
0, 3, 113, 8.10511589050293
0, 3, 114, 8.32481861114502
0, 3, 115, 6.310439586639404
0, 3, 116, 7.460513591766357
0, 3, 117, 11.04775810241699
0, 3, 118, 9.427236557006836
0, 3, 119, 5.191984176635742
0, 3, 120, 6.731282234191895
0, 3, 121, 2.477677345275879
0, 3, 122, 3.830125331878662
0, 3, 123, 4.884197235107422
0, 3, 124, 5.093138694763184
0, 3, 125, 7.567857265472412
0, 3, 126, 5.712625026702881
0, 3, 127, 2.39005708694458
0, 4, 0, 2.440791606903076
0, 4, 1, 4.664090156555176
0, 4, 2, 2.879214763641357
0, 4, 3, 2.565268993377686
0, 4, 4, 7.502356052398682
0, 4, 5, 10.12188148498535
0, 4, 6, 5.690750122070312
0, 4, 7, 4.639720439910889
0, 4, 8, 3.922416925430298
0, 4, 9, 4.89228343963623
0, 4, 10, 8.975674629211426
0, 4, 11, 6.51894998550415
0, 4, 12, 6.727267265319824
0, 4, 13, 8.745952606201172
0, 4, 14, 13.77064228057861
0, 4, 15, 10.18661975860596
0, 4, 16, 14.54152584075928
0, 4, 17, 19.71401023864746
0, 4, 18, 92.00802612304688
0, 4, 19, 221.8800201416016
0, 4, 20, 284.1703491210938
0, 4, 21, 270.9103393554688
0, 4, 22, 305.5446166992188
0, 4, 23, 265.7021179199219
0, 4, 24, 288.2134094238281
0, 4, 25, 273.0129089355469
0, 4, 26, 294.4948120117188
0, 4, 27, 282.2063598632812
0, 4, 28, 307.3849487304688
0, 4, 29, 322.2036743164062
0, 4, 30, 309.9506225585938
0, 4, 31, 303.1245727539062
0, 4, 32, 284.8410949707031
0, 4, 33, 298.5133972167969
0, 4, 34, 295.5678100585938
0, 4, 35, 312.0223999023438
0, 4, 36, 293.6254577636719
0, 4, 37, 287.4967651367188
0, 4, 38, 300.5298461914062
0, 4, 39, 293.4364624023438
0, 4, 40, 301.6865844726562
0, 4, 41, 310.5635681152344
0, 4, 42, 329.3663635253906
0, 4, 43, 295.9605712890625
0, 4, 44, 319.5353088378906
0, 4, 45, 322.4533996582031
0, 4, 46, 304.5122375488281
0, 4, 47, 294.0604248046875
0, 4, 48, 297.6723937988281
0, 4, 49, 279.0193176269531
0, 4, 50, 297.994140625
0, 4, 51, 316.9892578125
0, 4, 52, 328.8827209472656
0, 4, 53, 305.1909790039062
0, 4, 54, 288.2109375
0, 4, 55, 313.9299011230469
0, 4, 56, 285.9621276855469
0, 4, 57, 310.9652709960938
0, 4, 58, 295.7371826171875
0, 4, 59, 308.1488647460938
0, 4, 60, 301.0262145996094
0, 4, 61, 315.8876342773438
0, 4, 62, 309.4304809570312
0, 4, 63, 299.7868347167969
0, 4, 64, 329.2127685546875
0, 4, 65, 315.7559204101562
0, 4, 66, 293.0508422851562
0, 4, 67, 284.7521667480469
0, 4, 68, 311.2630004882812
0, 4, 69, 277.8423767089844
0, 4, 70, 301.0234985351562
0, 4, 71, 321.2062683105469
0, 4, 72, 332.9964904785156
0, 4, 73, 300.1328125
0, 4, 74, 291.36767578125
0, 4, 75, 289.2146911621094
0, 4, 76, 273.9493103027344
0, 4, 77, 277.8775329589844
0, 4, 78, 309.5154418945312
0, 4, 79, 317.4703979492188
0, 4, 80, 316.1914672851562
0, 4, 81, 313.2904052734375
0, 4, 82, 296.7529907226562
0, 4, 83, 299.9984130859375
0, 4, 84, 293.8468322753906
0, 4, 85, 295.4094848632812
0, 4, 86, 296.2695617675781
0, 4, 87, 284.8833312988281
0, 4, 88, 304.5343933105469
0, 4, 89, 295.0626831054688
0, 4, 90, 332.2127380371094
0, 4, 91, 301.1644897460938
0, 4, 92, 291.4877014160156
0, 4, 93, 296.9375
0, 4, 94, 292.0022583007812
0, 4, 95, 288.1730651855469
0, 4, 96, 329.7415466308594
0, 4, 97, 273.8593139648438
0, 4, 98, 329.0689697265625
0, 4, 99, 316.0880432128906
0, 4, 100, 299.9456787109375
0, 4, 101, 256.3369750976562
0, 4, 102, 296.0643310546875
0, 4, 103, 317.0051879882812
0, 4, 104, 282.4494323730469
0, 4, 105, 310.3121643066406
0, 4, 106, 287.6493225097656
0, 4, 107, 296.1732788085938
0, 4, 108, 225.46728515625
0, 4, 109, 81.85877990722656
0, 4, 110, 16.59989166259766
0, 4, 111, 15.76833629608154
0, 4, 112, 8.133559226989746
0, 4, 113, 10.69727420806885
0, 4, 114, 10.13042259216309
0, 4, 115, 10.33847904205322
0, 4, 116, 7.045589447021484
0, 4, 117, 6.375006198883057
0, 4, 118, 9.19733715057373
0, 4, 119, 9.909621238708496
0, 4, 120, 7.796018600463867
0, 4, 121, 5.701034545898438
0, 4, 122, 3.095418691635132
0, 4, 123, 5.542295455932617
0, 4, 124, 5.867199420928955
0, 4, 125, 8.560142517089844
0, 4, 126, 4.779044151306152
0, 4, 127, 3.577946901321411
0, 5, 0, 3.943721055984497
0, 5, 1, 2.673074007034302
0, 5, 2, 5.613529682159424
0, 5, 3, 5.149994373321533
0, 5, 4, 4.870791912078857
0, 5, 5, 6.821587085723877
0, 5, 6, 5.857245922088623
0, 5, 7, 5.834087371826172
0, 5, 8, 5.672799110412598
0, 5, 9, 4.952557563781738
0, 5, 10, 6.308006763458252
0, 5, 11, 7.615060806274414
0, 5, 12, 6.866433620452881
0, 5, 13, 5.420832633972168
0, 5, 14, 11.42689609527588
0, 5, 15, 17.25687026977539
0, 5, 16, 13.77675533294678
0, 5, 17, 28.65787124633789
0, 5, 18, 137.3569488525391
0, 5, 19, 287.5005493164062
0, 5, 20, 310.7295532226562
0, 5, 21, 317.2226867675781
0, 5, 22, 276.8554382324219
0, 5, 23, 310.1709594726562
0, 5, 24, 301.6868896484375
0, 5, 25, 290.05615234375
0, 5, 26, 293.3352355957031
0, 5, 27, 322.968505859375
0, 5, 28, 304.31005859375
0, 5, 29, 296.9306030273438
0, 5, 30, 323.3316650390625
0, 5, 31, 285.0532531738281
0, 5, 32, 303.615966796875
0, 5, 33, 302.7387084960938
0, 5, 34, 295.7239379882812
0, 5, 35, 311.5173034667969
0, 5, 36, 270.8419189453125
0, 5, 37, 283.7199096679688
0, 5, 38, 292.66015625
0, 5, 39, 312.3647155761719
0, 5, 40, 307.6499633789062
0, 5, 41, 273.5847473144531
0, 5, 42, 303.9905090332031
0, 5, 43, 312.1641540527344
0, 5, 44, 293.8576965332031
0, 5, 45, 302.8083801269531
0, 5, 46, 266.1339721679688
0, 5, 47, 280.0229187011719
0, 5, 48, 294.3387756347656
0, 5, 49, 285.7815551757812
0, 5, 50, 296.0127258300781
0, 5, 51, 279.1340026855469
0, 5, 52, 268.5568237304688
0, 5, 53, 284.9100646972656
0, 5, 54, 290.990966796875
0, 5, 55, 346.5590515136719
0, 5, 56, 306.029541015625
0, 5, 57, 304.8253173828125
0, 5, 58, 313.2025146484375
0, 5, 59, 304.8010864257812
0, 5, 60, 308.0806884765625
0, 5, 61, 280.971435546875
0, 5, 62, 325.7491455078125
0, 5, 63, 290.3401184082031
0, 5, 64, 323.580810546875
0, 5, 65, 307.313232421875
0, 5, 66, 328.271240234375
0, 5, 67, 313.0490417480469
0, 5, 68, 310.8432922363281
0, 5, 69, 311.491455078125
0, 5, 70, 303.0123596191406
0, 5, 71, 271.0147399902344
0, 5, 72, 310.3814392089844
0, 5, 73, 303.4680786132812
0, 5, 74, 294.90283203125
0, 5, 75, 293.930419921875
0, 5, 76, 284.992919921875
0, 5, 77, 298.3794555664062
0, 5, 78, 316.4504699707031
0, 5, 79, 306.8688659667969
0, 5, 80, 298.07080078125
0, 5, 81, 326.7500305175781
0, 5, 82, 324.2544860839844
0, 5, 83, 281.5799255371094
0, 5, 84, 301.9675598144531
0, 5, 85, 270.7778015136719
0, 5, 86, 326.9012145996094
0, 5, 87, 288.129150390625
0, 5, 88, 317.0250244140625
0, 5, 89, 304.5919189453125
0, 5, 90, 314.2283020019531
0, 5, 91, 316.1182556152344
0, 5, 92, 296.4729614257812
0, 5, 93, 323.2518615722656
0, 5, 94, 306.2474365234375
0, 5, 95, 295.3526611328125
0, 5, 96, 299.1199340820312
0, 5, 97, 296.7504272460938
0, 5, 98, 321.1458129882812
0, 5, 99, 301.3116760253906
0, 5, 100, 289.3992309570312
0, 5, 101, 304.5205993652344
0, 5, 102, 292.2012023925781
0, 5, 103, 313.3363952636719
0, 5, 104, 303.7352600097656
0, 5, 105, 291.9186096191406
0, 5, 106, 281.3659362792969
0, 5, 107, 291.8046875
0, 5, 108, 267.1775512695312
0, 5, 109, 157.8304901123047
0, 5, 110, 39.74290084838867
0, 5, 111, 18.75418090820312
0, 5, 112, 20.22159957885742
0, 5, 113, 12.91790676116943
0, 5, 114, 12.95094203948975
0, 5, 115, 6.593601703643799
0, 5, 116, 7.13314962387085
0, 5, 117, 6.239170551300049
0, 5, 118, 11.75149059295654
0, 5, 119, 4.42233419418335
0, 5, 120, 6.51550817489624
0, 5, 121, 6.484158039093018
0, 5, 122, 6.283176422119141
0, 5, 123, 3.282990217208862
0, 5, 124, 4.569054126739502
0, 5, 125, 3.54156756401062
0, 5, 126, 5.262365818023682
0, 5, 127, 2.834502458572388
0, 6, 0, 5.452361106872559
0, 6, 1, 2.658951759338379
0, 6, 2, 6.296245098114014
0, 6, 3, 5.691829681396484
0, 6, 4, 4.383310794830322
0, 6, 5, 9.379755020141602
0, 6, 6, 8.32177734375
0, 6, 7, 4.970304012298584
0, 6, 8, 6.080383777618408
0, 6, 9, 8.749796867370605
0, 6, 10, 8.239551544189453
0, 6, 11, 8.99824333190918
0, 6, 12, 7.58632755279541
0, 6, 13, 13.31478214263916
0, 6, 14, 8.339829444885254
0, 6, 15, 15.89045143127441
0, 6, 16, 28.62134552001953
0, 6, 17, 54.64312362670898
0, 6, 18, 171.6729888916016
0, 6, 19, 276.5867614746094
0, 6, 20, 292.68701171875
0, 6, 21, 313.1549987792969
0, 6, 22, 319.7736511230469
0, 6, 23, 304.8441467285156
0, 6, 24, 315.2198486328125
0, 6, 25, 318.5003967285156
0, 6, 26, 322.3700866699219
0, 6, 27, 331.2747802734375
0, 6, 28, 299.5707397460938
0, 6, 29, 330.9798889160156
0, 6, 30, 282.261474609375
0, 6, 31, 288.515869140625
0, 6, 32, 339.4184875488281
0, 6, 33, 301.306640625
0, 6, 34, 341.0717163085938
0, 6, 35, 320.0035705566406
0, 6, 36, 272.6734924316406
0, 6, 37, 288.983154296875
0, 6, 38, 311.2417602539062
0, 6, 39, 299.60595703125
0, 6, 40, 284.4801330566406
0, 6, 41, 296.3636169433594
0, 6, 42, 306.6722717285156
0, 6, 43, 288.0747375488281
0, 6, 44, 279.6299743652344
0, 6, 45, 318.9083251953125
0, 6, 46, 301.1087646484375
0, 6, 47, 335.0647583007812
0, 6, 48, 291.3227233886719
0, 6, 49, 310.8478088378906
0, 6, 50, 328.5570983886719
0, 6, 51, 312.611572265625
0, 6, 52, 323.5563049316406
0, 6, 53, 327.2941284179688
0, 6, 54, 303.8700866699219
0, 6, 55, 305.505126953125
0, 6, 56, 292.7629089355469
0, 6, 57, 312.5036315917969
0, 6, 58, 262.1306457519531
0, 6, 59, 304.255126953125
0, 6, 60, 311.9684753417969
0, 6, 61, 270.4805908203125
0, 6, 62, 335.7038269042969
0, 6, 63, 323.9427185058594
0, 6, 64, 291.7275390625
0, 6, 65, 284.3747863769531
0, 6, 66, 304.5100708007812
0, 6, 67, 309.9417419433594
0, 6, 68, 293.9325561523438
0, 6, 69, 278.4841003417969
0, 6, 70, 274.2484130859375
0, 6, 71, 288.2228088378906
0, 6, 72, 312.1285400390625
0, 6, 73, 292.3667602539062
0, 6, 74, 331.329345703125
0, 6, 75, 343.4092407226562
0, 6, 76, 296.7203369140625
0, 6, 77, 287.4312438964844
0, 6, 78, 278.6740112304688
0, 6, 79, 293.8370056152344
0, 6, 80, 298.6968383789062
0, 6, 81, 316.6582336425781
0, 6, 82, 319.0359497070312
0, 6, 83, 321.4845275878906
0, 6, 84, 296.1594848632812
0, 6, 85, 301.9034118652344
0, 6, 86, 330.69921875
0, 6, 87, 291.8580017089844
0, 6, 88, 309.1465759277344
0, 6, 89, 305.6499938964844
0, 6, 90, 300.6169128417969
0, 6, 91, 312.7764892578125
0, 6, 92, 284.4340515136719
0, 6, 93, 296.1956176757812
0, 6, 94, 272.2528686523438
0, 6, 95, 299.4526977539062
0, 6, 96, 346.9286193847656
0, 6, 97, 309.4507751464844
0, 6, 98, 304.0348510742188
0, 6, 99, 274.2209777832031
0, 6, 100, 309.58349609375
0, 6, 101, 295.2213439941406
0, 6, 102, 306.7953796386719
0, 6, 103, 307.658935546875
0, 6, 104, 293.26806640625
0, 6, 105, 302.9295349121094
0, 6, 106, 307.5107421875
0, 6, 107, 303.8311462402344
0, 6, 108, 266.3632507324219
0, 6, 109, 186.8816528320312
0, 6, 110, 55.84704208374023
0, 6, 111, 21.34367942810059
0, 6, 112, 13.28310394287109
0, 6, 113, 10.07865333557129
0, 6, 114, 11.16496181488037
0, 6, 115, 11.01621437072754
0, 6, 116, 9.281847953796387
0, 6, 117, 7.912203311920166
0, 6, 118, 10.45473384857178
0, 6, 119, 10.29506301879883
0, 6, 120, 8.259518623352051
0, 6, 121, 5.542669296264648
0, 6, 122, 8.019963264465332
0, 6, 123, 4.497712135314941
0, 6, 124, 5.368802070617676
0, 6, 125, 7.146422386169434
0, 6, 126, 3.911081075668335
0, 6, 127, 6.617249011993408
0, 7, 0, 7.373504161834717
0, 7, 1, 2.842289924621582
0, 7, 2, 4.738534450531006
0, 7, 3, 7.718200206756592
0, 7, 4, 4.814643859863281
0, 7, 5, 3.607253551483154
0, 7, 6, 6.939071178436279
0, 7, 7, 6.533688068389893
0, 7, 8, 8.062276840209961
0, 7, 9, 9.79157543182373
0, 7, 10, 9.478231430053711
0, 7, 11, 9.585206985473633
0, 7, 12, 11.43148040771484
0, 7, 13, 12.10689258575439
0, 7, 14, 10.64697360992432
0, 7, 15, 15.84070491790771
0, 7, 16, 26.33309936523438
0, 7, 17, 98.38978576660156
0, 7, 18, 221.0078735351562
0, 7, 19, 291.4623413085938
0, 7, 20, 297.0334777832031
0, 7, 21, 277.3360595703125
0, 7, 22, 298.9699401855469
0, 7, 23, 289.3754272460938
0, 7, 24, 314.6847534179688
0, 7, 25, 324.75927734375
0, 7, 26, 276.9899291992188
0, 7, 27, 299.8040466308594
0, 7, 28, 327.9928283691406
0, 7, 29, 320.4823608398438
0, 7, 30, 301.5408935546875
0, 7, 31, 278.7774353027344
0, 7, 32, 306.6841735839844
0, 7, 33, 259.1546325683594
0, 7, 34, 297.2757568359375
0, 7, 35, 319.5427856445312
0, 7, 36, 333.6201171875
0, 7, 37, 324.9441833496094
0, 7, 38, 297.4687194824219
0, 7, 39, 305.4916076660156
0, 7, 40, 289.1421813964844
0, 7, 41, 269.7336730957031
0, 7, 42, 300.7596130371094
0, 7, 43, 276.536376953125
0, 7, 44, 304.2955627441406
0, 7, 45, 293.6588134765625
0, 7, 46, 282.4834289550781
0, 7, 47, 327.1698913574219
0, 7, 48, 287.8459167480469
0, 7, 49, 300.7523193359375
0, 7, 50, 320.7127990722656
0, 7, 51, 298.7400207519531
0, 7, 52, 326.1825561523438
0, 7, 53, 309.5144348144531
0, 7, 54, 323.2958374023438
0, 7, 55, 305.9225158691406
0, 7, 56, 280.3621215820312
0, 7, 57, 282.3473815917969
0, 7, 58, 296.8138732910156
0, 7, 59, 293.987548828125
0, 7, 60, 322.9812316894531
0, 7, 61, 277.793212890625
0, 7, 62, 296.2081909179688
0, 7, 63, 292.7196044921875
0, 7, 64, 308.1779479980469
0, 7, 65, 331.3207397460938
0, 7, 66, 321.6906127929688
0, 7, 67, 300.5987854003906
0, 7, 68, 278.712158203125
0, 7, 69, 296.058837890625
0, 7, 70, 301.476806640625
0, 7, 71, 311.3450012207031
0, 7, 72, 286.5499572753906
0, 7, 73, 294.2051696777344
0, 7, 74, 344.8565673828125
0, 7, 75, 318.5732116699219
0, 7, 76, 322.9489135742188
0, 7, 77, 283.1700439453125
0, 7, 78, 301.3234252929688
0, 7, 79, 295.541748046875
0, 7, 80, 310.6256103515625
0, 7, 81, 319.7585754394531
0, 7, 82, 330.7711791992188
0, 7, 83, 317.758056640625
0, 7, 84, 309.47802734375
0, 7, 85, 272.0240173339844
0, 7, 86, 309.9379577636719
0, 7, 87, 310.3982849121094
0, 7, 88, 305.6756896972656
0, 7, 89, 296.4237976074219
0, 7, 90, 309.8379516601562
0, 7, 91, 314.294677734375
0, 7, 92, 288.3390502929688
0, 7, 93, 307.8629455566406
0, 7, 94, 274.8447265625
0, 7, 95, 295.9865417480469
0, 7, 96, 332.7077941894531
0, 7, 97, 294.0562438964844
0, 7, 98, 292.0321350097656
0, 7, 99, 312.6787109375
0, 7, 100, 284.7648010253906
0, 7, 101, 277.3893432617188
0, 7, 102, 291.361083984375
0, 7, 103, 290.8772583007812
0, 7, 104, 274.2495727539062
0, 7, 105, 307.5426025390625
0, 7, 106, 319.0136108398438
0, 7, 107, 298.9111328125
0, 7, 108, 273.7989501953125
0, 7, 109, 237.2242889404297
0, 7, 110, 95.66440582275391
0, 7, 111, 23.92887306213379
0, 7, 112, 12.47867870330811
0, 7, 113, 15.28703022003174
0, 7, 114, 14.8054370880127
0, 7, 115, 13.24104118347168
0, 7, 116, 11.36905765533447
0, 7, 117, 8.853132247924805
0, 7, 118, 9.71246337890625
0, 7, 119, 4.504796981811523
0, 7, 120, 5.362939834594727
0, 7, 121, 6.320987701416016
0, 7, 122, 4.871628761291504
0, 7, 123, 5.673562526702881
0, 7, 124, 2.962483644485474
0, 7, 125, 6.84938383102417
0, 7, 126, 9.619214057922363
0, 7, 127, 7.429537773132324
0, 8, 0, 5.87741231918335
0, 8, 1, 6.17789363861084
0, 8, 2, 2.920896530151367
0, 8, 3, 3.956460475921631
0, 8, 4, 4.121095180511475
0, 8, 5, 4.654578685760498
0, 8, 6, 4.423084259033203
0, 8, 7, 5.878502368927002
0, 8, 8, 7.781075000762939
0, 8, 9, 5.291590213775635
0, 8, 10, 7.636121273040771
0, 8, 11, 15.20373153686523
0, 8, 12, 13.60605144500732
0, 8, 13, 14.11260890960693
0, 8, 14, 13.74924850463867
0, 8, 15, 17.94447326660156
0, 8, 16, 31.76275444030762
0, 8, 17, 131.0274963378906
0, 8, 18, 242.2501525878906
0, 8, 19, 295.6200256347656
0, 8, 20, 287.5508117675781
0, 8, 21, 306.1709594726562
0, 8, 22, 297.644287109375
0, 8, 23, 277.9012451171875
0, 8, 24, 267.3573303222656
0, 8, 25, 276.0223693847656
0, 8, 26, 305.995361328125
0, 8, 27, 306.9827270507812
0, 8, 28, 303.8341369628906
0, 8, 29, 318.7239379882812
0, 8, 30, 313.5865783691406
0, 8, 31, 303.8585205078125
0, 8, 32, 280.4068298339844
0, 8, 33, 293.7184143066406
0, 8, 34, 290.6336975097656
0, 8, 35, 279.758544921875
0, 8, 36, 315.5372314453125
0, 8, 37, 340.0726928710938
0, 8, 38, 330.3478393554688
0, 8, 39, 281.6447448730469
0, 8, 40, 304.7846069335938
0, 8, 41, 293.89208984375
