# TOPAS Version: 3.1.p3
# Parameter File: batch_inserts_354.txt
# Results for scorer Readout_Adipose
# Scored in component: MyBox
# X in 1 bin  of 0.75 cm
# Y in 512 bins of 0.0783984 cm
# Z in 128 bins of 0.078125 cm
# EnergyDeposit ( MeV ) : Sum   
0, 0, 0, 3.380297183990479
0, 0, 1, 3.076325654983521
0, 0, 2, 6.242695331573486
0, 0, 3, 2.874630212783813
0, 0, 4, 4.992617607116699
0, 0, 5, 4.077602863311768
0, 0, 6, 5.019144535064697
0, 0, 7, 9.190250396728516
0, 0, 8, 2.8853600025177
0, 0, 9, 5.268078327178955
0, 0, 10, 7.113035678863525
0, 0, 11, 4.277189254760742
0, 0, 12, 4.489800453186035
0, 0, 13, 6.937485694885254
0, 0, 14, 7.391610145568848
0, 0, 15, 9.492704391479492
0, 0, 16, 10.93551540374756
0, 0, 17, 9.160279273986816
0, 0, 18, 14.67643451690674
0, 0, 19, 44.48272323608398
0, 0, 20, 138.8967437744141
0, 0, 21, 222.1211242675781
0, 0, 22, 248.7543334960938
0, 0, 23, 255.8570251464844
0, 0, 24, 252.2310485839844
0, 0, 25, 264.2374572753906
0, 0, 26, 236.9283599853516
0, 0, 27, 237.6987915039062
0, 0, 28, 272.4221801757812
0, 0, 29, 253.4124603271484
0, 0, 30, 230.0326080322266
0, 0, 31, 245.9200744628906
0, 0, 32, 263.8452758789062
0, 0, 33, 262.8265075683594
0, 0, 34, 287.6995849609375
0, 0, 35, 268.6044311523438
0, 0, 36, 246.0663299560547
0, 0, 37, 254.3066101074219
0, 0, 38, 269.7703247070312
0, 0, 39, 230.2284545898438
0, 0, 40, 241.8604278564453
0, 0, 41, 264.1796264648438
0, 0, 42, 229.2770233154297
0, 0, 43, 260.0241088867188
0, 0, 44, 250.4271240234375
0, 0, 45, 254.2212829589844
0, 0, 46, 245.4511413574219
0, 0, 47, 253.2987976074219
0, 0, 48, 266.546630859375
0, 0, 49, 274.7510070800781
0, 0, 50, 252.8193817138672
0, 0, 51, 253.2362518310547
0, 0, 52, 274.1312866210938
0, 0, 53, 290.9711303710938
0, 0, 54, 242.7823791503906
0, 0, 55, 239.7665557861328
0, 0, 56, 277.3560180664062
0, 0, 57, 261.751220703125
0, 0, 58, 245.2450714111328
0, 0, 59, 270.2208557128906
0, 0, 60, 236.9723205566406
0, 0, 61, 243.9668884277344
0, 0, 62, 256.436279296875
0, 0, 63, 265.5494995117188
0, 0, 64, 256.5103149414062
0, 0, 65, 260.7659912109375
0, 0, 66, 275.7770385742188
0, 0, 67, 245.9925842285156
0, 0, 68, 258.7669982910156
0, 0, 69, 262.1665649414062
0, 0, 70, 273.2071838378906
0, 0, 71, 236.6503295898438
0, 0, 72, 250.7155456542969
0, 0, 73, 256.3907775878906
0, 0, 74, 251.5946197509766
0, 0, 75, 239.4696655273438
0, 0, 76, 228.7403259277344
0, 0, 77, 262.9874267578125
0, 0, 78, 257.796630859375
0, 0, 79, 279.2907104492188
0, 0, 80, 217.9685363769531
0, 0, 81, 266.1377868652344
0, 0, 82, 257.2427978515625
0, 0, 83, 243.5855255126953
0, 0, 84, 268.8839111328125
0, 0, 85, 231.4154205322266
0, 0, 86, 255.9152221679688
0, 0, 87, 251.2205505371094
0, 0, 88, 259.0162353515625
0, 0, 89, 283.3370361328125
0, 0, 90, 242.8070983886719
0, 0, 91, 279.9953918457031
0, 0, 92, 253.1324157714844
0, 0, 93, 248.6361846923828
0, 0, 94, 250.2912902832031
0, 0, 95, 248.4962310791016
0, 0, 96, 274.9416809082031
0, 0, 97, 272.1006164550781
0, 0, 98, 272.3496398925781
0, 0, 99, 258.3362121582031
0, 0, 100, 258.1915283203125
0, 0, 101, 225.3384399414062
0, 0, 102, 233.2265472412109
0, 0, 103, 270.2235107421875
0, 0, 104, 253.9436645507812
0, 0, 105, 252.2266693115234
0, 0, 106, 248.6309051513672
0, 0, 107, 154.0162200927734
0, 0, 108, 38.40180587768555
0, 0, 109, 12.00858592987061
0, 0, 110, 12.57333469390869
0, 0, 111, 10.96647071838379
0, 0, 112, 6.390172958374023
0, 0, 113, 4.942410945892334
0, 0, 114, 5.332173824310303
0, 0, 115, 4.73402214050293
0, 0, 116, 5.602339267730713
0, 0, 117, 5.280452251434326
0, 0, 118, 5.637635231018066
0, 0, 119, 7.661787986755371
0, 0, 120, 4.562221050262451
0, 0, 121, 3.425993680953979
0, 0, 122, 4.262307167053223
0, 0, 123, 3.871584892272949
0, 0, 124, 7.448773384094238
0, 0, 125, 2.977317333221436
0, 0, 126, 6.754424095153809
0, 0, 127, 5.017961978912354
0, 1, 0, 9.631627082824707
0, 1, 1, 3.3374183177948
0, 1, 2, 4.013737678527832
0, 1, 3, 2.969820022583008
0, 1, 4, 3.071387767791748
0, 1, 5, 2.616199731826782
0, 1, 6, 4.972484588623047
0, 1, 7, 4.294306755065918
0, 1, 8, 7.311081409454346
0, 1, 9, 3.534197092056274
0, 1, 10, 6.014632225036621
0, 1, 11, 10.95185470581055
0, 1, 12, 7.583422660827637
0, 1, 13, 10.73796463012695
0, 1, 14, 8.430971145629883
0, 1, 15, 7.592484474182129
0, 1, 16, 10.97163963317871
0, 1, 17, 9.817459106445312
0, 1, 18, 20.38993835449219
0, 1, 19, 65.25252532958984
0, 1, 20, 196.9648590087891
0, 1, 21, 254.3983306884766
0, 1, 22, 296.6253051757812
0, 1, 23, 283.7369995117188
0, 1, 24, 279.4418334960938
0, 1, 25, 288.1737976074219
0, 1, 26, 267.8969116210938
0, 1, 27, 307.4453735351562
0, 1, 28, 299.7372741699219
0, 1, 29, 295.3717346191406
0, 1, 30, 284.3746032714844
0, 1, 31, 292.6196899414062
0, 1, 32, 291.2604675292969
0, 1, 33, 296.3539733886719
0, 1, 34, 291.7136840820312
0, 1, 35, 278.4905090332031
0, 1, 36, 306.9381713867188
0, 1, 37, 294.2440185546875
0, 1, 38, 285.5068359375
0, 1, 39, 298.7344665527344
0, 1, 40, 267.9529418945312
0, 1, 41, 286.8485717773438
0, 1, 42, 289.372314453125
0, 1, 43, 332.0744018554688
0, 1, 44, 279.0301818847656
0, 1, 45, 292.6771545410156
0, 1, 46, 258.9520263671875
0, 1, 47, 310.4089050292969
0, 1, 48, 285.9322509765625
0, 1, 49, 300.8645324707031
0, 1, 50, 262.780029296875
0, 1, 51, 272.1811218261719
0, 1, 52, 294.4102478027344
0, 1, 53, 305.1731872558594
0, 1, 54, 275.9394226074219
0, 1, 55, 293.2733459472656
0, 1, 56, 276.6878967285156
0, 1, 57, 297.8233337402344
0, 1, 58, 309.1468811035156
0, 1, 59, 293.1409912109375
0, 1, 60, 298.3285522460938
0, 1, 61, 275.5933837890625
0, 1, 62, 310.9568786621094
0, 1, 63, 285.2101135253906
0, 1, 64, 289.3256225585938
0, 1, 65, 294.86376953125
0, 1, 66, 293.21826171875
0, 1, 67, 291.7325439453125
0, 1, 68, 277.8558044433594
0, 1, 69, 279.1961364746094
0, 1, 70, 269.319580078125
0, 1, 71, 271.9852600097656
0, 1, 72, 287.14990234375
0, 1, 73, 305.0657958984375
0, 1, 74, 302.4081115722656
0, 1, 75, 292.8672180175781
0, 1, 76, 288.3132019042969
0, 1, 77, 290.7138977050781
0, 1, 78, 295.922607421875
0, 1, 79, 301.4705505371094
0, 1, 80, 294.8482055664062
0, 1, 81, 300.8030395507812
0, 1, 82, 287.2902221679688
0, 1, 83, 331.7213745117188
0, 1, 84, 308.2053527832031
0, 1, 85, 251.7911682128906
0, 1, 86, 292.7734680175781
0, 1, 87, 291.9074096679688
0, 1, 88, 298.8490295410156
0, 1, 89, 289.178466796875
0, 1, 90, 269.4564208984375
0, 1, 91, 317.6987915039062
0, 1, 92, 293.0513610839844
0, 1, 93, 286.3450317382812
0, 1, 94, 303.0746154785156
0, 1, 95, 283.617919921875
0, 1, 96, 283.1918334960938
0, 1, 97, 300.8171691894531
0, 1, 98, 279.5611572265625
0, 1, 99, 267.6264038085938
0, 1, 100, 275.9735412597656
0, 1, 101, 282.1226501464844
0, 1, 102, 279.80224609375
0, 1, 103, 281.1365051269531
0, 1, 104, 308.6645202636719
0, 1, 105, 296.5855712890625
0, 1, 106, 261.7214050292969
0, 1, 107, 190.3528747558594
0, 1, 108, 81.14794158935547
0, 1, 109, 22.76381874084473
0, 1, 110, 10.63529968261719
0, 1, 111, 8.014060020446777
0, 1, 112, 12.45254707336426
0, 1, 113, 5.702058792114258
0, 1, 114, 5.495438575744629
0, 1, 115, 7.173158645629883
0, 1, 116, 12.11316204071045
0, 1, 117, 5.834836959838867
0, 1, 118, 4.952038764953613
0, 1, 119, 7.743441104888916
0, 1, 120, 5.015151977539062
0, 1, 121, 4.646473407745361
0, 1, 122, 4.492852210998535
0, 1, 123, 2.993780374526978
0, 1, 124, 6.97218132019043
0, 1, 125, 4.159707546234131
0, 1, 126, 2.64450478553772
0, 1, 127, 5.121721744537354
0, 2, 0, 4.304492950439453
0, 2, 1, 1.928764939308167
0, 2, 2, 2.636692047119141
0, 2, 3, 5.177687644958496
0, 2, 4, 2.758513689041138
0, 2, 5, 1.817767977714539
0, 2, 6, 2.822364091873169
0, 2, 7, 3.285159111022949
0, 2, 8, 5.54263162612915
0, 2, 9, 8.537631034851074
0, 2, 10, 7.428045749664307
0, 2, 11, 7.246133804321289
0, 2, 12, 8.569509506225586
0, 2, 13, 9.986776351928711
0, 2, 14, 9.110631942749023
0, 2, 15, 8.816559791564941
0, 2, 16, 9.871120452880859
0, 2, 17, 15.93129634857178
0, 2, 18, 31.98189735412598
0, 2, 19, 117.8739776611328
0, 2, 20, 245.4224853515625
0, 2, 21, 274.5032958984375
0, 2, 22, 314.3110961914062
0, 2, 23, 302.1543884277344
0, 2, 24, 284.7962951660156
0, 2, 25, 303.1630859375
0, 2, 26, 291.9668884277344
0, 2, 27, 275.4794006347656
0, 2, 28, 274.2926025390625
0, 2, 29, 273.6487426757812
0, 2, 30, 292.4673767089844
0, 2, 31, 276.2560729980469
0, 2, 32, 293.9583129882812
0, 2, 33, 281.2291259765625
0, 2, 34, 331.2840576171875
0, 2, 35, 288.9241333007812
0, 2, 36, 302.85791015625
0, 2, 37, 315.5462646484375
0, 2, 38, 310.2968444824219
0, 2, 39, 267.2074584960938
0, 2, 40, 306.7361145019531
0, 2, 41, 292.4710998535156
0, 2, 42, 304.7860717773438
0, 2, 43, 316.4991760253906
0, 2, 44, 312.7947692871094
0, 2, 45, 324.5206604003906
0, 2, 46, 285.1449584960938
0, 2, 47, 303.8164367675781
0, 2, 48, 283.54443359375
0, 2, 49, 278.7189025878906
0, 2, 50, 295.783203125
0, 2, 51, 284.521484375
0, 2, 52, 273.4197387695312
0, 2, 53, 286.1790466308594
0, 2, 54, 278.9168395996094
0, 2, 55, 275.7070617675781
0, 2, 56, 303.7512512207031
0, 2, 57, 293.0277099609375
0, 2, 58, 307.9102478027344
0, 2, 59, 289.4753723144531
0, 2, 60, 317.7498168945312
0, 2, 61, 303.4761047363281
0, 2, 62, 310.9559326171875
0, 2, 63, 302.6700744628906
0, 2, 64, 298.3315124511719
0, 2, 65, 312.2115173339844
0, 2, 66, 279.8745422363281
0, 2, 67, 292.7167358398438
0, 2, 68, 295.541748046875
0, 2, 69, 309.5370178222656
0, 2, 70, 333.3365173339844
0, 2, 71, 286.0354919433594
0, 2, 72, 299.2421264648438
0, 2, 73, 312.3999938964844
0, 2, 74, 289.749267578125
0, 2, 75, 308.6094970703125
0, 2, 76, 286.7010192871094
0, 2, 77, 297.6179809570312
0, 2, 78, 315.0653991699219
0, 2, 79, 307.9278869628906
0, 2, 80, 296.6729125976562
0, 2, 81, 282.5379333496094
0, 2, 82, 317.90869140625
0, 2, 83, 313.4531860351562
0, 2, 84, 289.2242431640625
0, 2, 85, 282.8946228027344
0, 2, 86, 324.7635192871094
0, 2, 87, 286.486572265625
0, 2, 88, 280.8883361816406
0, 2, 89, 297.3675231933594
0, 2, 90, 294.36669921875
0, 2, 91, 276.2054138183594
0, 2, 92, 304.2113342285156
0, 2, 93, 316.3940734863281
0, 2, 94, 291.2899780273438
0, 2, 95, 314.4059753417969
0, 2, 96, 316.7204895019531
0, 2, 97, 291.7877197265625
0, 2, 98, 292.3518371582031
0, 2, 99, 274.2903747558594
0, 2, 100, 306.7665710449219
0, 2, 101, 301.6094665527344
0, 2, 102, 295.9349975585938
0, 2, 103, 291.6113891601562
0, 2, 104, 291.2301940917969
0, 2, 105, 276.1275329589844
0, 2, 106, 297.0792541503906
0, 2, 107, 271.2290649414062
0, 2, 108, 117.4603729248047
0, 2, 109, 32.33908843994141
0, 2, 110, 9.315681457519531
0, 2, 111, 10.48948860168457
0, 2, 112, 7.066462993621826
0, 2, 113, 8.994563102722168
0, 2, 114, 10.17948913574219
0, 2, 115, 10.03972148895264
0, 2, 116, 9.438380241394043
0, 2, 117, 6.050213813781738
0, 2, 118, 1.916127443313599
0, 2, 119, 2.783817768096924
0, 2, 120, 7.412331581115723
0, 2, 121, 2.296759366989136
0, 2, 122, 3.264402866363525
0, 2, 123, 5.026700973510742
0, 2, 124, 2.38798975944519
0, 2, 125, 5.042049407958984
0, 2, 126, 1.650798797607422
0, 2, 127, 4.533519268035889
0, 3, 0, 4.222870349884033
0, 3, 1, 3.236064672470093
0, 3, 2, 4.596182346343994
0, 3, 3, 2.388434410095215
0, 3, 4, 4.286271572113037
0, 3, 5, 9.027440071105957
0, 3, 6, 7.350517749786377
0, 3, 7, 5.302937507629395
0, 3, 8, 5.083095550537109
0, 3, 9, 5.23286247253418
0, 3, 10, 5.232105255126953
0, 3, 11, 5.207029819488525
0, 3, 12, 7.203850269317627
0, 3, 13, 15.8123254776001
0, 3, 14, 11.52175235748291
0, 3, 15, 14.26330661773682
0, 3, 16, 9.986741065979004
0, 3, 17, 18.59112358093262
0, 3, 18, 52.4662971496582
0, 3, 19, 178.1132049560547
0, 3, 20, 271.2893676757812
0, 3, 21, 269.6247253417969
0, 3, 22, 281.9238891601562
0, 3, 23, 287.6344604492188
0, 3, 24, 286.0234680175781
0, 3, 25, 268.3994750976562
0, 3, 26, 303.0978393554688
0, 3, 27, 293.6851501464844
0, 3, 28, 280.6089782714844
0, 3, 29, 338.3219909667969
0, 3, 30, 317.5511779785156
0, 3, 31, 285.7601623535156
0, 3, 32, 306.3445739746094
0, 3, 33, 314.5234680175781
0, 3, 34, 320.1653442382812
0, 3, 35, 307.3155517578125
0, 3, 36, 270.4580078125
0, 3, 37, 312.5769348144531
0, 3, 38, 304.2229614257812
0, 3, 39, 289.5467529296875
0, 3, 40, 267.3726196289062
0, 3, 41, 297.8660278320312
0, 3, 42, 285.1828002929688
0, 3, 43, 304.7359313964844
0, 3, 44, 311.2329711914062
0, 3, 45, 289.7615661621094
0, 3, 46, 330.1392211914062
0, 3, 47, 299.0243835449219
0, 3, 48, 302.7817687988281
0, 3, 49, 276.9880065917969
0, 3, 50, 289.8389587402344
0, 3, 51, 274.2588195800781
0, 3, 52, 316.4091491699219
0, 3, 53, 290.875732421875
0, 3, 54, 284.72265625
0, 3, 55, 286.8875732421875
0, 3, 56, 299.004150390625
0, 3, 57, 287.8247680664062
0, 3, 58, 305.6793212890625
0, 3, 59, 297.0742797851562
0, 3, 60, 297.99462890625
0, 3, 61, 266.5134887695312
0, 3, 62, 284.9082946777344
0, 3, 63, 304.7389526367188
0, 3, 64, 316.1406555175781
0, 3, 65, 305.6316528320312
0, 3, 66, 314.0894165039062
0, 3, 67, 317.7145080566406
0, 3, 68, 278.588623046875
0, 3, 69, 281.8917846679688
0, 3, 70, 291.0753479003906
0, 3, 71, 297.5711975097656
0, 3, 72, 270.5394592285156
0, 3, 73, 310.0137329101562
0, 3, 74, 291.2733154296875
0, 3, 75, 289.4373474121094
0, 3, 76, 307.3151245117188
0, 3, 77, 315.0218505859375
0, 3, 78, 303.8338317871094
0, 3, 79, 282.629638671875
0, 3, 80, 291.9691467285156
0, 3, 81, 311.4209289550781
0, 3, 82, 317.4106750488281
0, 3, 83, 300.1505737304688
0, 3, 84, 310.90380859375
0, 3, 85, 293.2693176269531
0, 3, 86, 304.0132751464844
0, 3, 87, 297.6941528320312
0, 3, 88, 299.8971862792969
0, 3, 89, 297.813232421875
0, 3, 90, 275.7220153808594
0, 3, 91, 283.1487426757812
0, 3, 92, 303.9178161621094
0, 3, 93, 313.3717651367188
0, 3, 94, 296.8193664550781
0, 3, 95, 335.9972839355469
0, 3, 96, 291.0606079101562
0, 3, 97, 283.2803649902344
0, 3, 98, 278.0360107421875
0, 3, 99, 261.7703552246094
0, 3, 100, 286.5179138183594
0, 3, 101, 297.666748046875
0, 3, 102, 277.2562866210938
0, 3, 103, 319.5500793457031
0, 3, 104, 308.2708129882812
0, 3, 105, 287.4004516601562
0, 3, 106, 303.0860290527344
0, 3, 107, 281.4098205566406
0, 3, 108, 168.6943511962891
0, 3, 109, 58.49411010742188
0, 3, 110, 18.60721397399902
0, 3, 111, 12.61910820007324
0, 3, 112, 14.01410865783691
0, 3, 113, 8.283790588378906
0, 3, 114, 11.7675895690918
0, 3, 115, 8.575507164001465
0, 3, 116, 6.553693294525146
0, 3, 117, 9.051816940307617
0, 3, 118, 12.45700931549072
0, 3, 119, 6.678641796112061
0, 3, 120, 5.710429191589355
0, 3, 121, 2.617422342300415
0, 3, 122, 2.430516242980957
0, 3, 123, 5.16805362701416
0, 3, 124, 4.29835319519043
0, 3, 125, 6.630217552185059
0, 3, 126, 4.434391021728516
0, 3, 127, 3.009496688842773
0, 4, 0, 4.601815700531006
0, 4, 1, 4.886301517486572
0, 4, 2, 4.957732200622559
0, 4, 3, 2.420555830001831
0, 4, 4, 7.167201995849609
0, 4, 5, 9.126664161682129
0, 4, 6, 6.8257737159729
0, 4, 7, 5.336699962615967
0, 4, 8, 3.773099899291992
0, 4, 9, 7.721356868743896
0, 4, 10, 5.132420063018799
0, 4, 11, 6.645386219024658
0, 4, 12, 8.062723159790039
0, 4, 13, 9.507823944091797
0, 4, 14, 12.41587734222412
0, 4, 15, 11.85244750976562
0, 4, 16, 12.79454231262207
0, 4, 17, 17.55916595458984
0, 4, 18, 92.50432586669922
0, 4, 19, 221.6486511230469
0, 4, 20, 284.3970642089844
0, 4, 21, 272.3090209960938
0, 4, 22, 304.9360656738281
0, 4, 23, 265.4358825683594
0, 4, 24, 289.0076599121094
0, 4, 25, 273.8956298828125
0, 4, 26, 293.8219604492188
0, 4, 27, 281.8411865234375
0, 4, 28, 307.8701171875
0, 4, 29, 322.7587585449219
0, 4, 30, 310.8805236816406
0, 4, 31, 306.8680114746094
0, 4, 32, 280.4638061523438
0, 4, 33, 294.3551025390625
0, 4, 34, 297.2672424316406
0, 4, 35, 311.7176818847656
0, 4, 36, 294.5223693847656
0, 4, 37, 289.29345703125
0, 4, 38, 300.3811950683594
0, 4, 39, 295.3641967773438
0, 4, 40, 301.8033752441406
0, 4, 41, 310.9648742675781
0, 4, 42, 330.2729797363281
0, 4, 43, 295.7673034667969
0, 4, 44, 319.1771545410156
0, 4, 45, 326.2807006835938
0, 4, 46, 306.22021484375
0, 4, 47, 291.7957458496094
0, 4, 48, 297.3735656738281
0, 4, 49, 279.8992919921875
0, 4, 50, 297.2214050292969
0, 4, 51, 315.865478515625
0, 4, 52, 326.26025390625
0, 4, 53, 302.6461791992188
0, 4, 54, 286.1460876464844
0, 4, 55, 317.2200317382812
0, 4, 56, 287.2062683105469
0, 4, 57, 310.2495422363281
0, 4, 58, 294.7825622558594
0, 4, 59, 306.738037109375
0, 4, 60, 304.0787048339844
0, 4, 61, 317.9891967773438
0, 4, 62, 311.3143920898438
0, 4, 63, 302.9265441894531
0, 4, 64, 330.7740173339844
0, 4, 65, 314.1111755371094
0, 4, 66, 293.4649047851562
0, 4, 67, 285.3863220214844
0, 4, 68, 313.2363891601562
0, 4, 69, 276.5169982910156
0, 4, 70, 298.5533752441406
0, 4, 71, 321.3675537109375
0, 4, 72, 333.688232421875
0, 4, 73, 297.588134765625
0, 4, 74, 294.1793212890625
0, 4, 75, 292.0538024902344
0, 4, 76, 276.2209167480469
0, 4, 77, 278.663818359375
0, 4, 78, 311.6697082519531
0, 4, 79, 320.8006591796875
0, 4, 80, 315.0683288574219
0, 4, 81, 312.6020202636719
0, 4, 82, 298.1968994140625
0, 4, 83, 299.0941162109375
0, 4, 84, 293.593017578125
0, 4, 85, 295.8579711914062
0, 4, 86, 298.5893859863281
0, 4, 87, 285.4092407226562
0, 4, 88, 303.7481689453125
0, 4, 89, 295.744140625
0, 4, 90, 334.1275634765625
0, 4, 91, 301.5244750976562
0, 4, 92, 289.0239868164062
0, 4, 93, 299.3255310058594
0, 4, 94, 293.4351196289062
0, 4, 95, 289.3665771484375
0, 4, 96, 326.8091735839844
0, 4, 97, 272.8497619628906
0, 4, 98, 326.52490234375
0, 4, 99, 316.9940490722656
0, 4, 100, 300.9288330078125
0, 4, 101, 258.6300659179688
0, 4, 102, 297.9457397460938
0, 4, 103, 319.595703125
0, 4, 104, 282.8495788574219
0, 4, 105, 310.28662109375
0, 4, 106, 288.2633666992188
0, 4, 107, 293.4131469726562
0, 4, 108, 226.1225433349609
0, 4, 109, 80.60542297363281
0, 4, 110, 16.44297218322754
0, 4, 111, 17.35178756713867
0, 4, 112, 9.441684722900391
0, 4, 113, 8.684041023254395
0, 4, 114, 8.262063026428223
0, 4, 115, 8.823991775512695
0, 4, 116, 8.364476203918457
0, 4, 117, 5.604601383209229
0, 4, 118, 9.841763496398926
0, 4, 119, 11.01742172241211
0, 4, 120, 4.586181163787842
0, 4, 121, 6.550633430480957
0, 4, 122, 5.661194324493408
0, 4, 123, 6.30852222442627
0, 4, 124, 5.318390846252441
0, 4, 125, 9.419619560241699
0, 4, 126, 5.329984664916992
0, 4, 127, 5.880898475646973
0, 5, 0, 3.718033313751221
0, 5, 1, 3.789704322814941
0, 5, 2, 5.3271164894104
0, 5, 3, 4.996814727783203
0, 5, 4, 6.07828426361084
0, 5, 5, 8.425430297851562
0, 5, 6, 6.857686519622803
0, 5, 7, 5.165863990783691
0, 5, 8, 5.36932373046875
0, 5, 9, 4.189759254455566
0, 5, 10, 6.115171432495117
0, 5, 11, 8.776311874389648
0, 5, 12, 8.747377395629883
0, 5, 13, 6.908022403717041
0, 5, 14, 11.35200977325439
0, 5, 15, 17.24979209899902
0, 5, 16, 14.95458984375
0, 5, 17, 28.70044708251953
0, 5, 18, 137.7785034179688
0, 5, 19, 287.2327575683594
0, 5, 20, 306.5142211914062
0, 5, 21, 316.5796813964844
0, 5, 22, 276.4278564453125
0, 5, 23, 310.1771850585938
0, 5, 24, 301.2712707519531
0, 5, 25, 288.3369445800781
0, 5, 26, 295.6956787109375
0, 5, 27, 322.4750366210938
0, 5, 28, 301.283447265625
0, 5, 29, 298.5187683105469
0, 5, 30, 326.3416748046875
0, 5, 31, 286.5560302734375
0, 5, 32, 305.236083984375
0, 5, 33, 303.8323974609375
0, 5, 34, 299.9620971679688
0, 5, 35, 310.0650939941406
0, 5, 36, 271.2224426269531
0, 5, 37, 283.4638366699219
0, 5, 38, 291.681640625
0, 5, 39, 311.2623596191406
0, 5, 40, 308.8865356445312
0, 5, 41, 274.4606323242188
0, 5, 42, 306.545166015625
0, 5, 43, 316.4454956054688
0, 5, 44, 292.60498046875
0, 5, 45, 305.3667907714844
0, 5, 46, 267.191650390625
0, 5, 47, 282.1485900878906
0, 5, 48, 292.6586303710938
0, 5, 49, 284.7156982421875
0, 5, 50, 294.4380187988281
0, 5, 51, 280.3904418945312
0, 5, 52, 269.0381774902344
0, 5, 53, 284.6391296386719
0, 5, 54, 291.022216796875
0, 5, 55, 343.2550964355469
0, 5, 56, 307.0622253417969
0, 5, 57, 313.12939453125
0, 5, 58, 313.5405883789062
0, 5, 59, 302.9000244140625
0, 5, 60, 306.1171875
0, 5, 61, 281.3350524902344
0, 5, 62, 323.4906311035156
0, 5, 63, 288.5199279785156
0, 5, 64, 323.0277404785156
0, 5, 65, 304.6736145019531
0, 5, 66, 329.2344360351562
0, 5, 67, 311.2912292480469
0, 5, 68, 311.1036071777344
0, 5, 69, 310.6732788085938
0, 5, 70, 300.3549499511719
0, 5, 71, 273.1484985351562
0, 5, 72, 309.5947570800781
0, 5, 73, 304.40234375
0, 5, 74, 296.0381469726562
0, 5, 75, 294.3274536132812
0, 5, 76, 285.4097290039062
0, 5, 77, 299.2654418945312
0, 5, 78, 316.0392761230469
0, 5, 79, 306.5864562988281
0, 5, 80, 295.1722412109375
0, 5, 81, 326.0187683105469
0, 5, 82, 325.0948486328125
0, 5, 83, 281.8092041015625
0, 5, 84, 303.2183837890625
0, 5, 85, 270.4259338378906
0, 5, 86, 325.4831848144531
0, 5, 87, 282.063232421875
0, 5, 88, 313.5938415527344
0, 5, 89, 306.1701965332031
0, 5, 90, 317.0865173339844
0, 5, 91, 314.2454833984375
0, 5, 92, 296.1097412109375
0, 5, 93, 321.5759582519531
0, 5, 94, 308.0816040039062
0, 5, 95, 297.72314453125
0, 5, 96, 298.0467529296875
0, 5, 97, 295.6881713867188
0, 5, 98, 319.81298828125
0, 5, 99, 302.1389465332031
0, 5, 100, 292.1861877441406
0, 5, 101, 306.7366638183594
0, 5, 102, 292.5212707519531
0, 5, 103, 313.4238891601562
0, 5, 104, 303.2405700683594
0, 5, 105, 292.8035888671875
0, 5, 106, 280.8865356445312
0, 5, 107, 292.6769104003906
0, 5, 108, 265.0807189941406
0, 5, 109, 158.5493011474609
0, 5, 110, 39.39215087890625
0, 5, 111, 22.46385192871094
0, 5, 112, 20.52056503295898
0, 5, 113, 14.67057037353516
0, 5, 114, 14.83116722106934
0, 5, 115, 8.528664588928223
0, 5, 116, 8.612590789794922
0, 5, 117, 6.179930210113525
0, 5, 118, 12.61940956115723
0, 5, 119, 5.089394092559814
0, 5, 120, 6.390950202941895
0, 5, 121, 4.053357601165771
0, 5, 122, 5.42557954788208
0, 5, 123, 5.058789253234863
0, 5, 124, 6.282390117645264
0, 5, 125, 5.351986885070801
0, 5, 126, 5.620241641998291
0, 5, 127, 4.859796524047852
0, 6, 0, 5.32805061340332
0, 6, 1, 4.22932243347168
0, 6, 2, 3.741159439086914
0, 6, 3, 5.278011798858643
0, 6, 4, 3.434635639190674
0, 6, 5, 7.022720813751221
0, 6, 6, 7.763278484344482
0, 6, 7, 5.685884952545166
0, 6, 8, 8.795310020446777
0, 6, 9, 6.748870849609375
0, 6, 10, 8.514581680297852
0, 6, 11, 8.778368949890137
0, 6, 12, 8.004225730895996
0, 6, 13, 13.58614444732666
0, 6, 14, 8.930360794067383
0, 6, 15, 17.71166229248047
0, 6, 16, 26.94619369506836
0, 6, 17, 55.98230743408203
0, 6, 18, 175.6822967529297
0, 6, 19, 278.2720336914062
0, 6, 20, 291.8974609375
0, 6, 21, 313.5623168945312
0, 6, 22, 319.3132019042969
0, 6, 23, 306.0280151367188
0, 6, 24, 316.8767395019531
0, 6, 25, 316.3140869140625
0, 6, 26, 320.03857421875
0, 6, 27, 330.6102294921875
0, 6, 28, 294.9396667480469
0, 6, 29, 328.1316528320312
0, 6, 30, 282.4066162109375
0, 6, 31, 285.4041442871094
0, 6, 32, 339.6792602539062
0, 6, 33, 298.91650390625
0, 6, 34, 340.4442138671875
0, 6, 35, 320.5577087402344
0, 6, 36, 273.1163940429688
0, 6, 37, 291.1288452148438
0, 6, 38, 310.1398620605469
0, 6, 39, 299.9353332519531
0, 6, 40, 282.8400268554688
0, 6, 41, 295.3959655761719
0, 6, 42, 304.8308715820312
0, 6, 43, 289.2602844238281
0, 6, 44, 280.1703796386719
0, 6, 45, 319.4043273925781
0, 6, 46, 301.3577880859375
0, 6, 47, 333.7303161621094
0, 6, 48, 294.3006591796875
0, 6, 49, 312.9062805175781
0, 6, 50, 328.9644470214844
0, 6, 51, 311.1440734863281
0, 6, 52, 321.7670593261719
0, 6, 53, 327.3577880859375
0, 6, 54, 303.6273803710938
0, 6, 55, 303.9955444335938
0, 6, 56, 294.0665283203125
0, 6, 57, 315.0309753417969
0, 6, 58, 263.01953125
0, 6, 59, 304.4507751464844
0, 6, 60, 315.8728942871094
0, 6, 61, 271.9553833007812
0, 6, 62, 336.5879516601562
0, 6, 63, 322.4408569335938
0, 6, 64, 293.3219604492188
0, 6, 65, 287.0508728027344
0, 6, 66, 304.4120788574219
0, 6, 67, 308.6222839355469
0, 6, 68, 293.3524169921875
0, 6, 69, 279.0083923339844
0, 6, 70, 276.2386779785156
0, 6, 71, 289.2007446289062
0, 6, 72, 309.22607421875
0, 6, 73, 293.4184265136719
0, 6, 74, 329.3429565429688
0, 6, 75, 342.3154907226562
0, 6, 76, 297.7574768066406
0, 6, 77, 287.9829711914062
0, 6, 78, 280.3134460449219
0, 6, 79, 294.4679870605469
0, 6, 80, 301.6759643554688
0, 6, 81, 314.7359313964844
0, 6, 82, 316.7840576171875
0, 6, 83, 318.9501647949219
0, 6, 84, 295.0852966308594
0, 6, 85, 300.6459045410156
0, 6, 86, 329.0910949707031
0, 6, 87, 293.5302734375
0, 6, 88, 306.3301696777344
0, 6, 89, 305.0032043457031
0, 6, 90, 299.1239624023438
0, 6, 91, 313.7272033691406
0, 6, 92, 284.9225158691406
0, 6, 93, 298.3604736328125
0, 6, 94, 272.460693359375
0, 6, 95, 299.4569396972656
0, 6, 96, 345.4134216308594
0, 6, 97, 308.1640625
0, 6, 98, 300.6595153808594
0, 6, 99, 270.6898193359375
0, 6, 100, 307.9393615722656
0, 6, 101, 293.7651062011719
0, 6, 102, 308.47998046875
0, 6, 103, 307.3729553222656
0, 6, 104, 294.5998229980469
0, 6, 105, 301.263671875
0, 6, 106, 308.0923156738281
0, 6, 107, 304.841796875
0, 6, 108, 265.1354675292969
0, 6, 109, 187.4699554443359
0, 6, 110, 56.89099502563477
0, 6, 111, 21.3245677947998
0, 6, 112, 14.04874801635742
0, 6, 113, 10.91614437103271
0, 6, 114, 13.42884159088135
0, 6, 115, 12.10752391815186
0, 6, 116, 9.755801200866699
0, 6, 117, 5.677971839904785
0, 6, 118, 8.37448787689209
0, 6, 119, 8.024870872497559
0, 6, 120, 5.086448669433594
0, 6, 121, 6.196796417236328
0, 6, 122, 7.842339515686035
0, 6, 123, 4.211316585540771
0, 6, 124, 10.40988826751709
0, 6, 125, 7.679129600524902
0, 6, 126, 5.185688972473145
0, 6, 127, 6.217293262481689
0, 7, 0, 5.09693431854248
0, 7, 1, 4.43891716003418
0, 7, 2, 5.307358264923096
0, 7, 3, 4.207420349121094
0, 7, 4, 4.746341228485107
0, 7, 5, 4.206326961517334
0, 7, 6, 6.220248699188232
0, 7, 7, 4.661503791809082
0, 7, 8, 4.309349536895752
0, 7, 9, 6.255531311035156
0, 7, 10, 9.271282196044922
0, 7, 11, 10.89260768890381
0, 7, 12, 8.671169281005859
0, 7, 13, 15.07616329193115
0, 7, 14, 15.53447818756104
0, 7, 15, 17.26196479797363
0, 7, 16, 25.75886535644531
0, 7, 17, 97.06657409667969
0, 7, 18, 217.0867156982422
0, 7, 19, 288.6213073730469
0, 7, 20, 297.37890625
0, 7, 21, 276.6570129394531
0, 7, 22, 300.33154296875
0, 7, 23, 289.5916137695312
0, 7, 24, 314.0428771972656
0, 7, 25, 323.5127258300781
0, 7, 26, 276.6362915039062
0, 7, 27, 296.7125549316406
0, 7, 28, 325.6238403320312
0, 7, 29, 319.3687744140625
0, 7, 30, 300.3735656738281
0, 7, 31, 276.3193969726562
0, 7, 32, 306.1365051269531
0, 7, 33, 263.6156616210938
0, 7, 34, 298.1524658203125
0, 7, 35, 319.893798828125
0, 7, 36, 330.5420837402344
0, 7, 37, 322.3705749511719
0, 7, 38, 294.8752746582031
0, 7, 39, 305.7861633300781
0, 7, 40, 288.4889221191406
0, 7, 41, 272.6761474609375
0, 7, 42, 300.1784057617188
0, 7, 43, 273.2068176269531
0, 7, 44, 303.6667175292969
0, 7, 45, 294.099365234375
0, 7, 46, 281.1054382324219
0, 7, 47, 328.7874450683594
0, 7, 48, 284.3648986816406
0, 7, 49, 303.8555603027344
0, 7, 50, 320.3321228027344
0, 7, 51, 300.548095703125
0, 7, 52, 325.5444641113281
0, 7, 53, 312.6009521484375
0, 7, 54, 324.5885009765625
0, 7, 55, 308.3477783203125
0, 7, 56, 280.1076965332031
0, 7, 57, 281.1392211914062
0, 7, 58, 294.6412048339844
0, 7, 59, 294.076416015625
0, 7, 60, 322.6119384765625
0, 7, 61, 277.6905517578125
0, 7, 62, 297.7351989746094
0, 7, 63, 291.6000061035156
0, 7, 64, 306.7297058105469
0, 7, 65, 329.6692810058594
0, 7, 66, 317.6080932617188
0, 7, 67, 301.5663757324219
0, 7, 68, 281.0340576171875
0, 7, 69, 296.1800231933594
0, 7, 70, 302.3828735351562
0, 7, 71, 308.3072509765625
0, 7, 72, 283.8673706054688
0, 7, 73, 296.87255859375
0, 7, 74, 344.4283447265625
0, 7, 75, 318.7708129882812
0, 7, 76, 323.9256591796875
0, 7, 77, 279.599853515625
0, 7, 78, 301.8372497558594
0, 7, 79, 298.1856994628906
0, 7, 80, 311.1585083007812
0, 7, 81, 318.4640197753906
0, 7, 82, 331.9353637695312
0, 7, 83, 316.2903137207031
0, 7, 84, 309.0379333496094
0, 7, 85, 271.7681274414062
0, 7, 86, 311.2435913085938
0, 7, 87, 309.9830322265625
0, 7, 88, 310.2372131347656
0, 7, 89, 294.5189514160156
0, 7, 90, 306.8079528808594
0, 7, 91, 313.585205078125
0, 7, 92, 291.5036315917969
0, 7, 93, 307.827880859375
0, 7, 94, 274.2896118164062
0, 7, 95, 295.4964904785156
0, 7, 96, 330.4124145507812
0, 7, 97, 294.3610534667969
0, 7, 98, 289.8850708007812
0, 7, 99, 311.6303405761719
0, 7, 100, 282.8881225585938
0, 7, 101, 275.3728942871094
0, 7, 102, 293.1213989257812
0, 7, 103, 291.9712524414062
0, 7, 104, 274.0435791015625
0, 7, 105, 305.5601196289062
0, 7, 106, 317.6171569824219
0, 7, 107, 299.3755493164062
0, 7, 108, 274.777099609375
0, 7, 109, 234.0601348876953
0, 7, 110, 97.28621673583984
0, 7, 111, 23.28106117248535
0, 7, 112, 13.55185127258301
0, 7, 113, 16.15555763244629
0, 7, 114, 12.64580345153809
0, 7, 115, 11.80755043029785
0, 7, 116, 7.800767421722412
0, 7, 117, 6.519014358520508
0, 7, 118, 7.038610458374023
0, 7, 119, 5.026254653930664
0, 7, 120, 5.013504505157471
0, 7, 121, 5.842522144317627
0, 7, 122, 6.68997859954834
0, 7, 123, 6.250265121459961
0, 7, 124, 5.311145305633545
0, 7, 125, 5.836904048919678
0, 7, 126, 5.886841297149658
0, 7, 127, 1.652925729751587
0, 8, 0, 3.429613828659058
0, 8, 1, 7.522830486297607
0, 8, 2, 4.324839115142822
0, 8, 3, 4.160170078277588
0, 8, 4, 4.77231502532959
0, 8, 5, 5.276529312133789
0, 8, 6, 4.799081802368164
0, 8, 7, 4.507328510284424
0, 8, 8, 11.64075469970703
0, 8, 9, 5.260357856750488
0, 8, 10, 6.224979877471924
0, 8, 11, 9.688128471374512
0, 8, 12, 13.90596675872803
0, 8, 13, 14.6319055557251
0, 8, 14, 13.31827068328857
0, 8, 15, 16.68524360656738
0, 8, 16, 31.71426010131836
0, 8, 17, 130.7208862304688
0, 8, 18, 243.7228240966797
0, 8, 19, 295.5491027832031
0, 8, 20, 285.4104309082031
0, 8, 21, 306.3735046386719
0, 8, 22, 295.44384765625
0, 8, 23, 274.7195434570312
0, 8, 24, 269.4141540527344
0, 8, 25, 275.4012756347656
0, 8, 26, 306.3314819335938
0, 8, 27, 306.8081665039062
0, 8, 28, 303.3419799804688
0, 8, 29, 317.8238525390625
0, 8, 30, 316.6721496582031
0, 8, 31, 306.6314086914062
0, 8, 32, 279.3189392089844
0, 8, 33, 293.025634765625
0, 8, 34, 288.2059631347656
0, 8, 35, 279.911865234375
0, 8, 36, 315.4729309082031
0, 8, 37, 338.6290283203125
0, 8, 38, 331.3949584960938
0, 8, 39, 280.5362854003906
0, 8, 40, 306.2916564941406
