# TOPAS Version: 3.1.p3
# Parameter File: batch_inserts_112.txt
# Results for scorer Readout_Adipose
# Scored in component: MyBox
# X in 1 bin  of 0.75 cm
# Y in 512 bins of 0.0783984 cm
# Z in 128 bins of 0.078125 cm
# EnergyDeposit ( MeV ) : Sum   
0, 0, 0, 21.7303638458252
0, 0, 1, 21.01117706298828
0, 0, 2, 24.7340030670166
0, 0, 3, 19.6099681854248
0, 0, 4, 18.28748512268066
0, 0, 5, 23.50061798095703
0, 0, 6, 23.91368675231934
0, 0, 7, 38.05916595458984
0, 0, 8, 25.61171913146973
0, 0, 9, 20.99118423461914
0, 0, 10, 21.4522705078125
0, 0, 11, 25.15194892883301
0, 0, 12, 39.28208923339844
0, 0, 13, 34.23445892333984
0, 0, 14, 44.63513946533203
0, 0, 15, 44.84110641479492
0, 0, 16, 42.38991546630859
0, 0, 17, 45.40162658691406
0, 0, 18, 74.95388793945312
0, 0, 19, 187.5570220947266
0, 0, 20, 697.933349609375
0, 0, 21, 1187.7822265625
0, 0, 22, 1247.845947265625
0, 0, 23, 1274.636962890625
0, 0, 24, 1277.21484375
0, 0, 25, 1357.703491210938
0, 0, 26, 1270.853759765625
0, 0, 27, 1278.72412109375
0, 0, 28, 1325.084716796875
0, 0, 29, 1272.548583984375
0, 0, 30, 1264.638305664062
0, 0, 31, 1281.438110351562
0, 0, 32, 1264.809814453125
0, 0, 33, 1245.968383789062
0, 0, 34, 1325.159057617188
0, 0, 35, 1299.063842773438
0, 0, 36, 1245.950073242188
0, 0, 37, 1277.76171875
0, 0, 38, 1245.109252929688
0, 0, 39, 1242.955078125
0, 0, 40, 1225.893798828125
0, 0, 41, 1265.847045898438
0, 0, 42, 1253.083618164062
0, 0, 43, 1267.441528320312
0, 0, 44, 1221.11767578125
0, 0, 45, 1288.228759765625
0, 0, 46, 1260.863525390625
0, 0, 47, 1238.364501953125
0, 0, 48, 1275.37060546875
0, 0, 49, 1285.559326171875
0, 0, 50, 1315.306030273438
0, 0, 51, 1262.622192382812
0, 0, 52, 1360.03466796875
0, 0, 53, 1325.751220703125
0, 0, 54, 1295.73828125
0, 0, 55, 1234.232543945312
0, 0, 56, 1317.625732421875
0, 0, 57, 1287.204467773438
0, 0, 58, 1256.484252929688
0, 0, 59, 1330.604125976562
0, 0, 60, 1326.369262695312
0, 0, 61, 1260.580444335938
0, 0, 62, 1239.988525390625
0, 0, 63, 1276.39501953125
0, 0, 64, 1331.849731445312
0, 0, 65, 1284.924194335938
0, 0, 66, 1318.161743164062
0, 0, 67, 1217.90673828125
0, 0, 68, 1317.162109375
0, 0, 69, 1329.7958984375
0, 0, 70, 1343.863647460938
0, 0, 71, 1285.90869140625
0, 0, 72, 1311.791748046875
0, 0, 73, 1235.500122070312
0, 0, 74, 1288.578125
0, 0, 75, 1298.151489257812
0, 0, 76, 1259.523071289062
0, 0, 77, 1287.79638671875
0, 0, 78, 1318.301635742188
0, 0, 79, 1326.87646484375
0, 0, 80, 1264.616333007812
0, 0, 81, 1324.004516601562
0, 0, 82, 1285.440551757812
0, 0, 83, 1292.738891601562
0, 0, 84, 1328.95654296875
0, 0, 85, 1233.6923828125
0, 0, 86, 1269.796020507812
0, 0, 87, 1251.009643554688
0, 0, 88, 1255.041259765625
0, 0, 89, 1333.493408203125
0, 0, 90, 1274.007202148438
0, 0, 91, 1353.829711914062
0, 0, 92, 1300.745971679688
0, 0, 93, 1277.6875
0, 0, 94, 1242.530395507812
0, 0, 95, 1329.393920898438
0, 0, 96, 1281.536865234375
0, 0, 97, 1326.732421875
0, 0, 98, 1259.337890625
0, 0, 99, 1252.756591796875
0, 0, 100, 1286.112548828125
0, 0, 101, 1318.061889648438
0, 0, 102, 1231.270385742188
0, 0, 103, 1316.16259765625
0, 0, 104, 1261.978149414062
0, 0, 105, 1264.943237304688
0, 0, 106, 1208.754150390625
0, 0, 107, 780.5933227539062
0, 0, 108, 199.4764556884766
0, 0, 109, 71.3494873046875
0, 0, 110, 62.8653450012207
0, 0, 111, 40.42311096191406
0, 0, 112, 33.43218612670898
0, 0, 113, 31.25152206420898
0, 0, 114, 36.24878692626953
0, 0, 115, 30.5191764831543
0, 0, 116, 24.68499374389648
0, 0, 117, 31.13133239746094
0, 0, 118, 21.58754348754883
0, 0, 119, 21.32756423950195
0, 0, 120, 30.56708908081055
0, 0, 121, 26.31177520751953
0, 0, 122, 27.59881210327148
0, 0, 123, 20.19914245605469
0, 0, 124, 23.90970230102539
0, 0, 125, 17.22899436950684
0, 0, 126, 25.80311393737793
0, 0, 127, 13.7509822845459
0, 1, 0, 27.35684585571289
0, 1, 1, 21.48112297058105
0, 1, 2, 24.22152328491211
0, 1, 3, 25.93527984619141
0, 1, 4, 23.64939498901367
0, 1, 5, 28.17468643188477
0, 1, 6, 26.53442764282227
0, 1, 7, 25.13516616821289
0, 1, 8, 34.53414535522461
0, 1, 9, 34.39125061035156
0, 1, 10, 26.81901550292969
0, 1, 11, 40.51051712036133
0, 1, 12, 37.68727111816406
0, 1, 13, 41.60112380981445
0, 1, 14, 44.28531265258789
0, 1, 15, 51.45668792724609
0, 1, 16, 56.37214660644531
0, 1, 17, 58.02358245849609
0, 1, 18, 97.36105346679688
0, 1, 19, 403.2889099121094
0, 1, 20, 1039.491577148438
0, 1, 21, 1371.7373046875
0, 1, 22, 1474.070556640625
0, 1, 23, 1460.610717773438
0, 1, 24, 1450.019775390625
0, 1, 25, 1414.352416992188
0, 1, 26, 1476.488159179688
0, 1, 27, 1467.787719726562
0, 1, 28, 1493.604248046875
0, 1, 29, 1481.396606445312
0, 1, 30, 1510.674682617188
0, 1, 31, 1482.72021484375
0, 1, 32, 1410.822998046875
0, 1, 33, 1498.776611328125
0, 1, 34, 1495.966552734375
0, 1, 35, 1456.986450195312
0, 1, 36, 1493.347412109375
0, 1, 37, 1408.929809570312
0, 1, 38, 1387.723510742188
0, 1, 39, 1522.88818359375
0, 1, 40, 1462.622192382812
0, 1, 41, 1490.989013671875
0, 1, 42, 1490.418212890625
0, 1, 43, 1504.515014648438
0, 1, 44, 1446.464965820312
0, 1, 45, 1489.032958984375
0, 1, 46, 1421.360961914062
0, 1, 47, 1438.101318359375
0, 1, 48, 1431.24951171875
0, 1, 49, 1487.459228515625
0, 1, 50, 1443.5849609375
0, 1, 51, 1476.734497070312
0, 1, 52, 1472.969604492188
0, 1, 53, 1475.169311523438
0, 1, 54, 1507.538696289062
0, 1, 55, 1498.144165039062
0, 1, 56, 1470.335083007812
0, 1, 57, 1453.248779296875
0, 1, 58, 1438.505859375
0, 1, 59, 1486.899536132812
0, 1, 60, 1466.93505859375
0, 1, 61, 1456.427978515625
0, 1, 62, 1456.136474609375
0, 1, 63, 1412.116455078125
0, 1, 64, 1475.625854492188
0, 1, 65, 1416.485107421875
0, 1, 66, 1438.223388671875
0, 1, 67, 1453.29736328125
0, 1, 68, 1384.588256835938
0, 1, 69, 1464.197021484375
0, 1, 70, 1431.010986328125
0, 1, 71, 1498.484741210938
0, 1, 72, 1434.647094726562
0, 1, 73, 1491.374145507812
0, 1, 74, 1468.908325195312
0, 1, 75, 1477.014282226562
0, 1, 76, 1462.544067382812
0, 1, 77, 1467.675048828125
0, 1, 78, 1449.072265625
0, 1, 79, 1500.500366210938
0, 1, 80, 1446.564819335938
0, 1, 81, 1423.74755859375
0, 1, 82, 1474.509155273438
0, 1, 83, 1464.625610351562
0, 1, 84, 1538.354370117188
0, 1, 85, 1448.226196289062
0, 1, 86, 1406.35888671875
0, 1, 87, 1423.075439453125
0, 1, 88, 1478.22509765625
0, 1, 89, 1470.746337890625
0, 1, 90, 1429.577758789062
0, 1, 91, 1470.210815429688
0, 1, 92, 1408.554077148438
0, 1, 93, 1462.438598632812
0, 1, 94, 1470.342163085938
0, 1, 95, 1425.977294921875
0, 1, 96, 1500.539916992188
0, 1, 97, 1519.0615234375
0, 1, 98, 1480.31494140625
0, 1, 99, 1419.09814453125
0, 1, 100, 1447.707275390625
0, 1, 101, 1413.5263671875
0, 1, 102, 1443.966796875
0, 1, 103, 1409.840087890625
0, 1, 104, 1405.436279296875
0, 1, 105, 1462.205200195312
0, 1, 106, 1366.340576171875
0, 1, 107, 1019.648681640625
0, 1, 108, 405.6326599121094
0, 1, 109, 96.16737365722656
0, 1, 110, 65.00912475585938
0, 1, 111, 55.50709533691406
0, 1, 112, 45.47092819213867
0, 1, 113, 41.05707168579102
0, 1, 114, 32.8189582824707
0, 1, 115, 34.43351745605469
0, 1, 116, 34.35170364379883
0, 1, 117, 35.06068801879883
0, 1, 118, 35.86212158203125
0, 1, 119, 31.94390869140625
0, 1, 120, 31.79502868652344
0, 1, 121, 26.03718757629395
0, 1, 122, 25.0540885925293
0, 1, 123, 26.14832878112793
0, 1, 124, 31.17281723022461
0, 1, 125, 20.05973815917969
0, 1, 126, 20.97022819519043
0, 1, 127, 23.69869041442871
0, 2, 0, 16.65406799316406
0, 2, 1, 22.70298004150391
0, 2, 2, 22.93180847167969
0, 2, 3, 24.18124771118164
0, 2, 4, 22.77226638793945
0, 2, 5, 27.28680801391602
0, 2, 6, 20.20450592041016
0, 2, 7, 23.25313186645508
0, 2, 8, 28.3356819152832
0, 2, 9, 25.21715545654297
0, 2, 10, 29.71147155761719
0, 2, 11, 31.98481750488281
0, 2, 12, 41.60259246826172
0, 2, 13, 44.47449111938477
0, 2, 14, 46.84535217285156
0, 2, 15, 43.71614837646484
0, 2, 16, 61.34571838378906
0, 2, 17, 79.08661651611328
0, 2, 18, 140.5892791748047
0, 2, 19, 607.1748657226562
0, 2, 20, 1287.635620117188
0, 2, 21, 1434.009521484375
0, 2, 22, 1459.8203125
0, 2, 23, 1403.964233398438
0, 2, 24, 1440.80029296875
0, 2, 25, 1523.431640625
0, 2, 26, 1557.711669921875
0, 2, 27, 1453.407470703125
0, 2, 28, 1458.224975585938
0, 2, 29, 1459.613159179688
0, 2, 30, 1466.445190429688
0, 2, 31, 1535.546142578125
0, 2, 32, 1508.868774414062
0, 2, 33, 1444.136840820312
0, 2, 34, 1473.069580078125
0, 2, 35, 1469.499633789062
0, 2, 36, 1522.386352539062
0, 2, 37, 1543.019653320312
0, 2, 38, 1505.642822265625
0, 2, 39, 1462.5625
0, 2, 40, 1503.379760742188
0, 2, 41, 1521.657592773438
0, 2, 42, 1505.404907226562
0, 2, 43, 1548.409790039062
0, 2, 44, 1461.277465820312
0, 2, 45, 1483.60986328125
0, 2, 46, 1427.901489257812
0, 2, 47, 1444.52490234375
0, 2, 48, 1395.399658203125
0, 2, 49, 1458.46630859375
0, 2, 50, 1440.991943359375
0, 2, 51, 1450.507202148438
0, 2, 52, 1494.363647460938
0, 2, 53, 1522.563354492188
0, 2, 54, 1527.193237304688
0, 2, 55, 1494.62646484375
0, 2, 56, 1465.498779296875
0, 2, 57, 1413.38427734375
0, 2, 58, 1454.637939453125
0, 2, 59, 1452.223999023438
0, 2, 60, 1468.534912109375
0, 2, 61, 1448.763061523438
0, 2, 62, 1471.17333984375
0, 2, 63, 1506.177734375
0, 2, 64, 1457.239868164062
0, 2, 65, 1426.6474609375
0, 2, 66, 1486.5810546875
0, 2, 67, 1503.291137695312
0, 2, 68, 1542.242065429688
0, 2, 69, 1541.55615234375
0, 2, 70, 1508.637573242188
0, 2, 71, 1460.693359375
0, 2, 72, 1515.193603515625
0, 2, 73, 1520.1650390625
0, 2, 74, 1489.696411132812
0, 2, 75, 1506.521118164062
0, 2, 76, 1448.331298828125
0, 2, 77, 1505.721069335938
0, 2, 78, 1432.124633789062
0, 2, 79, 1541.524291992188
0, 2, 80, 1479.304565429688
0, 2, 81, 1465.352905273438
0, 2, 82, 1560.603271484375
0, 2, 83, 1516.807495117188
0, 2, 84, 1492.185424804688
0, 2, 85, 1511.590576171875
0, 2, 86, 1540.23681640625
0, 2, 87, 1491.779052734375
0, 2, 88, 1542.196411132812
0, 2, 89, 1466.262451171875
0, 2, 90, 1433.166259765625
0, 2, 91, 1406.072509765625
0, 2, 92, 1479.6474609375
0, 2, 93, 1499.909912109375
0, 2, 94, 1452.402709960938
0, 2, 95, 1545.806640625
0, 2, 96, 1512.925537109375
0, 2, 97, 1457.156127929688
0, 2, 98, 1464.962524414062
0, 2, 99, 1402.856079101562
0, 2, 100, 1475.771118164062
0, 2, 101, 1480.104614257812
0, 2, 102, 1461.08447265625
0, 2, 103, 1384.410278320312
0, 2, 104, 1410.589721679688
0, 2, 105, 1401.43798828125
0, 2, 106, 1454.067993164062
0, 2, 107, 1267.765991210938
0, 2, 108, 623.8441772460938
0, 2, 109, 170.9590148925781
0, 2, 110, 67.00654602050781
0, 2, 111, 55.31160736083984
0, 2, 112, 46.45086288452148
0, 2, 113, 42.1502685546875
0, 2, 114, 39.2227783203125
0, 2, 115, 41.73793029785156
0, 2, 116, 32.43383026123047
0, 2, 117, 39.2175407409668
0, 2, 118, 31.1718807220459
0, 2, 119, 27.22615242004395
0, 2, 120, 29.05695724487305
0, 2, 121, 23.43925666809082
0, 2, 122, 22.94711875915527
0, 2, 123, 23.51869583129883
0, 2, 124, 22.74942970275879
0, 2, 125, 29.37191009521484
0, 2, 126, 16.57842254638672
0, 2, 127, 21.48238754272461
0, 3, 0, 20.04090309143066
0, 3, 1, 21.75038909912109
0, 3, 2, 18.6784553527832
0, 3, 3, 19.49003219604492
0, 3, 4, 21.12151718139648
0, 3, 5, 24.58885383605957
0, 3, 6, 31.25770568847656
0, 3, 7, 32.39399337768555
0, 3, 8, 28.9150218963623
0, 3, 9, 29.49966239929199
0, 3, 10, 39.22304153442383
0, 3, 11, 41.40640258789062
0, 3, 12, 46.02643966674805
0, 3, 13, 48.84799957275391
0, 3, 14, 62.84448623657227
0, 3, 15, 53.62971115112305
0, 3, 16, 70.97430419921875
0, 3, 17, 85.24977111816406
0, 3, 18, 240.19873046875
0, 3, 19, 873.6658935546875
0, 3, 20, 1386.438842773438
0, 3, 21, 1505.813354492188
0, 3, 22, 1462.6220703125
0, 3, 23, 1452.659790039062
0, 3, 24, 1436.24169921875
0, 3, 25, 1461.397338867188
0, 3, 26, 1493.552856445312
0, 3, 27, 1462.9716796875
0, 3, 28, 1490.094116210938
0, 3, 29, 1542.71484375
0, 3, 30, 1573.965209960938
0, 3, 31, 1513.985473632812
0, 3, 32, 1544.58251953125
0, 3, 33, 1535.798828125
0, 3, 34, 1484.084594726562
0, 3, 35, 1465.87109375
0, 3, 36, 1451.192016601562
0, 3, 37, 1521.028442382812
0, 3, 38, 1519.649780273438
0, 3, 39, 1440.609985351562
0, 3, 40, 1443.537475585938
0, 3, 41, 1557.052368164062
0, 3, 42, 1463.759033203125
0, 3, 43, 1458.13818359375
0, 3, 44, 1454.597778320312
0, 3, 45, 1508.095092773438
0, 3, 46, 1505.66455078125
0, 3, 47, 1439.747924804688
0, 3, 48, 1506.640014648438
0, 3, 49, 1453.275512695312
0, 3, 50, 1489.32861328125
0, 3, 51, 1534.199462890625
0, 3, 52, 1534.478881835938
0, 3, 53, 1464.66015625
0, 3, 54, 1540.822631835938
0, 3, 55, 1505.012084960938
0, 3, 56, 1435.308349609375
0, 3, 57, 1504.87841796875
0, 3, 58, 1511.105712890625
0, 3, 59, 1515.998168945312
0, 3, 60, 1533.423950195312
0, 3, 61, 1484.674682617188
0, 3, 62, 1493.691284179688
0, 3, 63, 1496.5009765625
0, 3, 64, 1496.771484375
0, 3, 65, 1518.664306640625
0, 3, 66, 1552.505615234375
0, 3, 67, 1548.53076171875
0, 3, 68, 1445.048950195312
0, 3, 69, 1464.428588867188
0, 3, 70, 1388.520385742188
0, 3, 71, 1457.975219726562
0, 3, 72, 1550.533813476562
0, 3, 73, 1501.7265625
0, 3, 74, 1471.117553710938
0, 3, 75, 1462.9990234375
0, 3, 76, 1571.491577148438
0, 3, 77, 1538.250854492188
0, 3, 78, 1432.317138671875
0, 3, 79, 1491.6484375
0, 3, 80, 1461.6650390625
0, 3, 81, 1472.24755859375
0, 3, 82, 1552.601806640625
0, 3, 83, 1512.254760742188
0, 3, 84, 1560.088745117188
0, 3, 85, 1477.808837890625
0, 3, 86, 1525.458618164062
0, 3, 87, 1541.297119140625
0, 3, 88, 1455.495849609375
0, 3, 89, 1451.692138671875
0, 3, 90, 1451.230590820312
0, 3, 91, 1417.99072265625
0, 3, 92, 1511.80224609375
0, 3, 93, 1499.677978515625
0, 3, 94, 1514.894897460938
0, 3, 95, 1546.106811523438
0, 3, 96, 1518.031494140625
0, 3, 97, 1464.077392578125
0, 3, 98, 1434.135009765625
0, 3, 99, 1462.380981445312
0, 3, 100, 1465.769653320312
0, 3, 101, 1477.624267578125
0, 3, 102, 1519.566772460938
0, 3, 103, 1549.56982421875
0, 3, 104, 1496.495361328125
0, 3, 105, 1515.520874023438
0, 3, 106, 1475.87353515625
0, 3, 107, 1340.231079101562
0, 3, 108, 871.251708984375
0, 3, 109, 261.1391906738281
0, 3, 110, 101.0733261108398
0, 3, 111, 68.79562377929688
0, 3, 112, 62.68188858032227
0, 3, 113, 49.90341567993164
0, 3, 114, 46.29579162597656
0, 3, 115, 53.13695526123047
0, 3, 116, 41.29362106323242
0, 3, 117, 36.45724487304688
0, 3, 118, 40.25862121582031
0, 3, 119, 25.85630798339844
0, 3, 120, 29.95989227294922
0, 3, 121, 18.21964645385742
0, 3, 122, 25.91086959838867
0, 3, 123, 24.52656745910645
0, 3, 124, 24.95264434814453
0, 3, 125, 27.97833442687988
0, 3, 126, 20.94839668273926
0, 3, 127, 17.29153823852539
0, 4, 0, 22.71677398681641
0, 4, 1, 25.08288192749023
0, 4, 2, 21.47275161743164
0, 4, 3, 22.87299728393555
0, 4, 4, 26.54687690734863
0, 4, 5, 25.79337501525879
0, 4, 6, 30.77664184570312
0, 4, 7, 33.86478042602539
0, 4, 8, 26.43634986877441
0, 4, 9, 34.22815322875977
0, 4, 10, 34.52761077880859
0, 4, 11, 35.53017044067383
0, 4, 12, 43.4322509765625
0, 4, 13, 57.91579818725586
0, 4, 14, 47.5295295715332
0, 4, 15, 60.29561996459961
0, 4, 16, 76.89006805419922
0, 4, 17, 114.2799606323242
0, 4, 18, 446.2796020507812
0, 4, 19, 1183.490112304688
0, 4, 20, 1448.004150390625
0, 4, 21, 1418.697021484375
0, 4, 22, 1430.640014648438
0, 4, 23, 1452.459838867188
0, 4, 24, 1476.743530273438
0, 4, 25, 1406.26904296875
0, 4, 26, 1536.555419921875
0, 4, 27, 1538.396240234375
0, 4, 28, 1513.854614257812
0, 4, 29, 1520.664794921875
0, 4, 30, 1533.170043945312
0, 4, 31, 1574.880981445312
0, 4, 32, 1511.090698242188
0, 4, 33, 1492.677978515625
0, 4, 34, 1468.561889648438
0, 4, 35, 1558.505859375
0, 4, 36, 1499.605590820312
0, 4, 37, 1512.89697265625
0, 4, 38, 1533.54443359375
0, 4, 39, 1468.287841796875
0, 4, 40, 1513.615966796875
0, 4, 41, 1588.720947265625
0, 4, 42, 1565.492797851562
0, 4, 43, 1480.119140625
0, 4, 44, 1502.015747070312
0, 4, 45, 1517.85595703125
0, 4, 46, 1463.12255859375
0, 4, 47, 1504.18359375
0, 4, 48, 1523.237060546875
0, 4, 49, 1473.470458984375
0, 4, 50, 1519.850341796875
0, 4, 51, 1492.22119140625
0, 4, 52, 1496.16845703125
0, 4, 53, 1454.633911132812
0, 4, 54, 1447.04736328125
0, 4, 55, 1525.28076171875
0, 4, 56, 1457.151123046875
0, 4, 57, 1496.015747070312
0, 4, 58, 1460.231567382812
0, 4, 59, 1465.371704101562
0, 4, 60, 1523.881713867188
0, 4, 61, 1500.795043945312
0, 4, 62, 1508.132202148438
0, 4, 63, 1547.723266601562
0, 4, 64, 1592.71533203125
0, 4, 65, 1425.853637695312
0, 4, 66, 1513.079833984375
0, 4, 67, 1521.158081054688
0, 4, 68, 1497.75341796875
0, 4, 69, 1469.41943359375
0, 4, 70, 1546.132446289062
0, 4, 71, 1516.252075195312
0, 4, 72, 1530.796020507812
0, 4, 73, 1497.585815429688
0, 4, 74, 1488.425903320312
0, 4, 75, 1536.249755859375
0, 4, 76, 1481.758666992188
0, 4, 77, 1499.81982421875
0, 4, 78, 1504.639038085938
0, 4, 79, 1486.491088867188
0, 4, 80, 1514.33544921875
0, 4, 81, 1528.011352539062
0, 4, 82, 1570.394287109375
0, 4, 83, 1502.408935546875
0, 4, 84, 1546.22119140625
0, 4, 85, 1552.223754882812
0, 4, 86, 1520.802612304688
0, 4, 87, 1496.03076171875
0, 4, 88, 1515.126953125
0, 4, 89, 1482.186767578125
0, 4, 90, 1544.826171875
0, 4, 91, 1553.278930664062
0, 4, 92, 1487.276733398438
0, 4, 93, 1513.64599609375
0, 4, 94, 1485.462524414062
0, 4, 95, 1512.25048828125
0, 4, 96, 1440.96728515625
0, 4, 97, 1410.366455078125
0, 4, 98, 1554.111328125
0, 4, 99, 1510.316650390625
0, 4, 100, 1486.983642578125
0, 4, 101, 1451.293334960938
0, 4, 102, 1448.998779296875
0, 4, 103, 1514.3701171875
0, 4, 104, 1507.226318359375
0, 4, 105, 1556.59619140625
0, 4, 106, 1478.298706054688
0, 4, 107, 1453.15673828125
0, 4, 108, 1122.231567382812
0, 4, 109, 438.0291748046875
0, 4, 110, 98.23438262939453
0, 4, 111, 74.8992919921875
0, 4, 112, 60.68225479125977
0, 4, 113, 47.49164199829102
0, 4, 114, 55.85182189941406
0, 4, 115, 43.33659362792969
0, 4, 116, 36.90058517456055
0, 4, 117, 45.00981903076172
0, 4, 118, 39.47092056274414
0, 4, 119, 41.11195373535156
0, 4, 120, 32.69142913818359
0, 4, 121, 26.96761131286621
0, 4, 122, 30.59465599060059
0, 4, 123, 28.23896026611328
0, 4, 124, 23.90980911254883
0, 4, 125, 34.29580688476562
0, 4, 126, 21.96377754211426
0, 4, 127, 22.38034439086914
0, 5, 0, 21.09710311889648
0, 5, 1, 24.53516387939453
0, 5, 2, 32.39760971069336
0, 5, 3, 26.33255004882812
0, 5, 4, 23.63298034667969
0, 5, 5, 36.53279113769531
0, 5, 6, 27.71277236938477
0, 5, 7, 25.73004722595215
0, 5, 8, 28.04068374633789
0, 5, 9, 30.63167190551758
0, 5, 10, 33.85070037841797
0, 5, 11, 38.50365447998047
0, 5, 12, 37.14822769165039
0, 5, 13, 49.92964553833008
0, 5, 14, 63.61552429199219
0, 5, 15, 79.06735229492188
0, 5, 16, 80.28398895263672
0, 5, 17, 156.7305908203125
0, 5, 18, 677.5753784179688
0, 5, 19, 1343.03173828125
0, 5, 20, 1522.237670898438
0, 5, 21, 1492.9990234375
0, 5, 22, 1498.118774414062
0, 5, 23, 1529.35888671875
0, 5, 24, 1464.238403320312
0, 5, 25, 1426.560424804688
0, 5, 26, 1526.610717773438
0, 5, 27, 1539.019165039062
0, 5, 28, 1483.857543945312
0, 5, 29, 1522.180419921875
0, 5, 30, 1491.496215820312
0, 5, 31, 1499.255126953125
0, 5, 32, 1597.35546875
0, 5, 33, 1501.687622070312
0, 5, 34, 1484.81494140625
0, 5, 35, 1517.173217773438
0, 5, 36, 1443.154663085938
0, 5, 37, 1529.178100585938
0, 5, 38, 1543.927734375
0, 5, 39, 1547.566040039062
0, 5, 40, 1500.549560546875
0, 5, 41, 1483.69384765625
0, 5, 42, 1541.57763671875
0, 5, 43, 1530.57861328125
0, 5, 44, 1536.975708007812
0, 5, 45, 1510.662719726562
0, 5, 46, 1489.894897460938
0, 5, 47, 1485.995971679688
0, 5, 48, 1502.4287109375
0, 5, 49, 1523.015991210938
0, 5, 50, 1506.789184570312
0, 5, 51, 1513.281127929688
0, 5, 52, 1427.92138671875
0, 5, 53, 1522.94580078125
0, 5, 54, 1522.130859375
0, 5, 55, 1526.238525390625
0, 5, 56, 1486.114379882812
0, 5, 57, 1544.643310546875
0, 5, 58, 1505.838012695312
0, 5, 59, 1485.800048828125
0, 5, 60, 1539.811279296875
0, 5, 61, 1453.31201171875
0, 5, 62, 1586.980712890625
0, 5, 63, 1430.648559570312
0, 5, 64, 1488.364868164062
0, 5, 65, 1468.617919921875
0, 5, 66, 1524.47265625
0, 5, 67, 1561.332275390625
0, 5, 68, 1465.143920898438
0, 5, 69, 1482.31201171875
0, 5, 70, 1488.7783203125
0, 5, 71, 1472.605102539062
0, 5, 72, 1537.728393554688
0, 5, 73, 1460.348876953125
0, 5, 74, 1496.223022460938
0, 5, 75, 1485.431518554688
0, 5, 76, 1477.056884765625
0, 5, 77, 1514.26953125
0, 5, 78, 1524.510620117188
0, 5, 79, 1512.770263671875
0, 5, 80, 1520.655151367188
0, 5, 81, 1592.112915039062
0, 5, 82, 1526.372436523438
0, 5, 83, 1489.105224609375
0, 5, 84, 1531.9970703125
0, 5, 85, 1512.843017578125
0, 5, 86, 1555.045166015625
0, 5, 87, 1469.399536132812
0, 5, 88, 1493.302368164062
0, 5, 89, 1482.975463867188
0, 5, 90, 1481.403198242188
0, 5, 91, 1548.25537109375
0, 5, 92, 1486.022338867188
0, 5, 93, 1558.882080078125
0, 5, 94, 1509.468383789062
0, 5, 95, 1560.890380859375
0, 5, 96, 1499.553344726562
0, 5, 97, 1512.78076171875
0, 5, 98, 1511.74462890625
0, 5, 99, 1539.034301757812
0, 5, 100, 1432.957763671875
0, 5, 101, 1425.011962890625
0, 5, 102, 1516.176147460938
0, 5, 103, 1473.945068359375
0, 5, 104, 1457.652099609375
0, 5, 105, 1490.916015625
0, 5, 106, 1455.26806640625
0, 5, 107, 1399.536987304688
0, 5, 108, 1290.441162109375
0, 5, 109, 718.3887329101562
0, 5, 110, 190.8078155517578
0, 5, 111, 91.80611419677734
0, 5, 112, 76.10922241210938
0, 5, 113, 66.5670166015625
0, 5, 114, 62.45986557006836
0, 5, 115, 54.6441535949707
0, 5, 116, 44.42024230957031
0, 5, 117, 42.074462890625
0, 5, 118, 43.91299438476562
0, 5, 119, 25.95852470397949
0, 5, 120, 26.24359512329102
0, 5, 121, 22.4111385345459
0, 5, 122, 28.79232788085938
0, 5, 123, 27.1207389831543
0, 5, 124, 27.30084228515625
0, 5, 125, 27.79564476013184
0, 5, 126, 20.58647537231445
0, 5, 127, 24.28558540344238
0, 6, 0, 22.98554801940918
0, 6, 1, 28.99997711181641
0, 6, 2, 31.04322814941406
0, 6, 3, 32.37320327758789
0, 6, 4, 23.03976631164551
0, 6, 5, 29.22618675231934
0, 6, 6, 33.98837661743164
0, 6, 7, 35.31943893432617
0, 6, 8, 32.68211364746094
0, 6, 9, 36.08625793457031
0, 6, 10, 38.33261489868164
0, 6, 11, 39.46006774902344
0, 6, 12, 42.96183776855469
0, 6, 13, 55.34523391723633
0, 6, 14, 67.04470825195312
0, 6, 15, 82.83171081542969
0, 6, 16, 108.0360641479492
0, 6, 17, 294.21923828125
0, 6, 18, 899.8199462890625
0, 6, 19, 1375.711791992188
0, 6, 20, 1436.782348632812
0, 6, 21, 1529.743286132812
0, 6, 22, 1504.072875976562
0, 6, 23, 1527.646850585938
0, 6, 24, 1476.651977539062
0, 6, 25, 1525.24169921875
0, 6, 26, 1517.394653320312
0, 6, 27, 1524.10693359375
0, 6, 28, 1552.314208984375
0, 6, 29, 1575.52783203125
0, 6, 30, 1514.73583984375
0, 6, 31, 1491.07177734375
0, 6, 32, 1530.3203125
0, 6, 33, 1488.398193359375
0, 6, 34, 1566.33544921875
0, 6, 35, 1501.874389648438
0, 6, 36, 1438.328979492188
0, 6, 37, 1549.633422851562
0, 6, 38, 1525.746704101562
0, 6, 39, 1536.229248046875
0, 6, 40, 1457.483642578125
0, 6, 41, 1439.73388671875
0, 6, 42, 1516.514892578125
0, 6, 43, 1484.782348632812
0, 6, 44, 1431.559814453125
0, 6, 45, 1544.322021484375
0, 6, 46, 1555.470336914062
0, 6, 47, 1500.417114257812
0, 6, 48, 1521.836059570312
0, 6, 49, 1516.430541992188
0, 6, 50, 1572.73486328125
0, 6, 51, 1502.32763671875
0, 6, 52, 1560.156494140625
0, 6, 53, 1476.500122070312
0, 6, 54, 1502.904663085938
0, 6, 55, 1570.87841796875
0, 6, 56, 1521.434692382812
0, 6, 57, 1504.643676757812
0, 6, 58, 1466.879516601562
0, 6, 59, 1520.130493164062
0, 6, 60, 1473.908569335938
0, 6, 61, 1571.3515625
0, 6, 62, 1540.452270507812
0, 6, 63, 1495.476440429688
0, 6, 64, 1415.7431640625
0, 6, 65, 1496.848510742188
0, 6, 66, 1517.382080078125
0, 6, 67, 1511.807373046875
0, 6, 68, 1547.774780273438
0, 6, 69, 1489.385986328125
0, 6, 70, 1527.095092773438
0, 6, 71, 1468.331665039062
0, 6, 72, 1598.385498046875
0, 6, 73, 1489.220947265625
0, 6, 74, 1555.769287109375
0, 6, 75, 1536.354125976562
0, 6, 76, 1563.037963867188
0, 6, 77, 1506.535400390625
0, 6, 78, 1449.913452148438
0, 6, 79, 1560.800903320312
0, 6, 80, 1482.45263671875
0, 6, 81, 1480.097534179688
0, 6, 82, 1503.03662109375
0, 6, 83, 1528.693481445312
0, 6, 84, 1521.054443359375
0, 6, 85, 1539.0693359375
0, 6, 86, 1540.33837890625
0, 6, 87, 1571.799194335938
0, 6, 88, 1478.783325195312
0, 6, 89, 1561.898315429688
0, 6, 90, 1487.836059570312
0, 6, 91, 1539.646850585938
0, 6, 92, 1496.735961914062
0, 6, 93, 1494.383544921875
0, 6, 94, 1471.032592773438
0, 6, 95, 1509.5537109375
0, 6, 96, 1518.08154296875
0, 6, 97, 1501.9228515625
0, 6, 98, 1497.404663085938
0, 6, 99, 1478.970825195312
0, 6, 100, 1522.867065429688
0, 6, 101, 1517.328979492188
0, 6, 102, 1548.425537109375
0, 6, 103, 1495.8046875
0, 6, 104, 1465.957153320312
0, 6, 105, 1487.392578125
0, 6, 106, 1496.523803710938
0, 6, 107, 1501.1923828125
0, 6, 108, 1409.74560546875
0, 6, 109, 924.3956298828125
0, 6, 110, 284.6710815429688
0, 6, 111, 96.79393005371094
0, 6, 112, 75.07513427734375
0, 6, 113, 60.37316131591797
0, 6, 114, 58.07966232299805
0, 6, 115, 44.45905303955078
0, 6, 116, 45.24674224853516
0, 6, 117, 37.78115844726562
0, 6, 118, 40.42315673828125
0, 6, 119, 41.56386947631836
0, 6, 120, 30.23760223388672
0, 6, 121, 28.38273048400879
0, 6, 122, 28.68844032287598
0, 6, 123, 28.0610179901123
0, 6, 124, 32.69926834106445
0, 6, 125, 32.60636901855469
0, 6, 126, 22.34158134460449
0, 6, 127, 21.9777774810791
0, 7, 0, 19.43892097473145
0, 7, 1, 28.96570777893066
0, 7, 2, 19.80772590637207
0, 7, 3, 22.81753158569336
0, 7, 4, 28.38437652587891
0, 7, 5, 39.72526168823242
0, 7, 6, 32.7884635925293
0, 7, 7, 39.62003326416016
0, 7, 8, 31.62651634216309
0, 7, 9, 35.17969131469727
0, 7, 10, 47.63759994506836
0, 7, 11, 47.20294952392578
0, 7, 12, 46.75033569335938
0, 7, 13, 53.73942565917969
0, 7, 14, 61.47126770019531
0, 7, 15, 79.72016906738281
0, 7, 16, 131.7768402099609
0, 7, 17, 462.3153076171875
0, 7, 18, 1099.872314453125
0, 7, 19, 1499.38818359375
0, 7, 20, 1484.322998046875
0, 7, 21, 1368.07470703125
0, 7, 22, 1487.743774414062
0, 7, 23, 1454.458251953125
0, 7, 24, 1508.938232421875
0, 7, 25, 1592.431518554688
0, 7, 26, 1519.220947265625
0, 7, 27, 1514.435546875
0, 7, 28, 1544.768432617188
0, 7, 29, 1572.864624023438
0, 7, 30, 1543.295654296875
0, 7, 31, 1435.308349609375
0, 7, 32, 1543.490112304688
0, 7, 33, 1492.8134765625
0, 7, 34, 1480.21240234375
0, 7, 35, 1520.924072265625
0, 7, 36, 1474.9228515625
0, 7, 37, 1597.436401367188
0, 7, 38, 1507.238525390625
0, 7, 39, 1490.597290039062
0, 7, 40, 1544.413818359375
0, 7, 41, 1463.229858398438
0, 7, 42, 1483.935302734375
0, 7, 43, 1441.43017578125
0, 7, 44, 1489.103149414062
0, 7, 45, 1473.626708984375
0, 7, 46, 1511.936279296875
0, 7, 47, 1564.620971679688
0, 7, 48, 1526.335571289062
0, 7, 49, 1541.376708984375
0, 7, 50, 1518.037841796875
0, 7, 51, 1504.147216796875
0, 7, 52, 1518.836181640625
0, 7, 53, 1492.546264648438
0, 7, 54, 1585.260375976562
0, 7, 55, 1473.889892578125
0, 7, 56, 1553.220458984375
0, 7, 57, 1516.505737304688
0, 7, 58, 1550.348510742188
0, 7, 59, 1546.173583984375
0, 7, 60, 1545.462280273438
0, 7, 61, 1487.556030273438
0, 7, 62, 1434.771118164062
0, 7, 63, 1516.832763671875
0, 7, 64, 1548.526489257812
0, 7, 65, 1532.664672851562
0, 7, 66, 1534.434326171875
0, 7, 67, 1578.141845703125
0, 7, 68, 1531.473388671875
0, 7, 69, 1513.330688476562
0, 7, 70, 1497.92333984375
0, 7, 71, 1522.658203125
0, 7, 72, 1524.183959960938
0, 7, 73, 1517.171630859375
0, 7, 74, 1574.24072265625
0, 7, 75, 1538.154541015625
0, 7, 76, 1556.473388671875
0, 7, 77, 1510.52734375
0, 7, 78, 1502.067504882812
0, 7, 79, 1425.063232421875
0, 7, 80, 1486.604736328125
0, 7, 81, 1492.732543945312
0, 7, 82, 1529.880249023438
0, 7, 83, 1553.687866210938
0, 7, 84, 1583.61474609375
0, 7, 85, 1484.68798828125
0, 7, 86, 1502.61181640625
0, 7, 87, 1508.83837890625
0, 7, 88, 1499.256591796875
0, 7, 89, 1551.30712890625
0, 7, 90, 1519.227661132812
0, 7, 91, 1567.710083007812
0, 7, 92, 1526.731079101562
0, 7, 93, 1555.806762695312
0, 7, 94, 1538.0068359375
0, 7, 95, 1509.777099609375
0, 7, 96, 1506.87939453125
0, 7, 97, 1433.865844726562
0, 7, 98, 1483.971557617188
0, 7, 99, 1525.962036132812
0, 7, 100, 1418.244140625
0, 7, 101, 1467.065307617188
0, 7, 102, 1452.775268554688
0, 7, 103, 1431.568237304688
0, 7, 104, 1493.280883789062
0, 7, 105, 1522.478759765625
0, 7, 106, 1567.0078125
0, 7, 107, 1480.030395507812
0, 7, 108, 1408.572631835938
0, 7, 109, 1144.052490234375
0, 7, 110, 469.1014404296875
0, 7, 111, 127.0323333740234
0, 7, 112, 78.67558288574219
0, 7, 113, 69.71023559570312
0, 7, 114, 53.9488639831543
0, 7, 115, 52.13338470458984
0, 7, 116, 46.50228500366211
0, 7, 117, 46.42137908935547
0, 7, 118, 34.60306167602539
0, 7, 119, 35.98714828491211
0, 7, 120, 25.85804748535156
0, 7, 121, 32.52973175048828
0, 7, 122, 32.76544570922852
0, 7, 123, 32.28968048095703
0, 7, 124, 29.70639228820801
0, 7, 125, 21.18553161621094
0, 7, 126, 24.6157283782959
0, 7, 127, 20.68574333190918
0, 8, 0, 21.4766960144043
0, 8, 1, 20.62242889404297
0, 8, 2, 24.85321617126465
0, 8, 3, 26.9703483581543
0, 8, 4, 25.81840896606445
0, 8, 5, 35.60032653808594
0, 8, 6, 28.33443832397461
0, 8, 7, 28.88864898681641
0, 8, 8, 33.73120880126953
0, 8, 9, 44.87355041503906
0, 8, 10, 42.30765533447266
0, 8, 11, 43.99104309082031
0, 8, 12, 50.20660781860352
0, 8, 13, 65.56584930419922
0, 8, 14, 70.35524749755859
0, 8, 15, 80.61893463134766
0, 8, 16, 170.72314453125
0, 8, 17, 678.3367919921875
0, 8, 18, 1277.51904296875
0, 8, 19, 1449.973510742188
0, 8, 20, 1424.004516601562
0, 8, 21, 1411.017211914062
0, 8, 22, 1492.345092773438
0, 8, 23, 1480.75146484375
0, 8, 24, 1442.592163085938
0, 8, 25, 1458.966186523438
0, 8, 26, 1516.246215820312
0, 8, 27, 1522.357788085938
0, 8, 28, 1475.656005859375
0, 8, 29, 1510.0654296875
0, 8, 30, 1492.118774414062
0, 8, 31, 1538.710815429688
0, 8, 32, 1508.721923828125
0, 8, 33, 1486.244262695312
0, 8, 34, 1532.401977539062
0, 8, 35, 1437.90185546875
0, 8, 36, 1496.036743164062
0, 8, 37, 1553.225708007812
0, 8, 38, 1550.7265625
0, 8, 39, 1490.677612304688
0, 8, 40, 1529.730102539062
0, 8, 41, 1484.197631835938
0, 8, 42, 1537.17578125
0, 8, 43, 1440.837036132812
0, 8, 44, 1535.790161132812
0, 8, 45, 1515.963989257812
0, 8, 46, 1596.6494140625
