# TOPAS Version: 3.1.p3
# Parameter File: batch_inserts_18.txt
# Results for scorer Readout_Adipose
# Scored in component: MyBox
# X in 1 bin  of 0.75 cm
# Y in 512 bins of 0.0783984 cm
# Z in 128 bins of 0.078125 cm
# EnergyDeposit ( MeV ) : Sum   
0, 0, 0, 4.372044563293457
0, 0, 1, 2.021347284317017
0, 0, 2, 4.920995235443115
0, 0, 3, 1.979303479194641
0, 0, 4, 3.52266263961792
0, 0, 5, 2.964460134506226
0, 0, 6, 4.602572441101074
0, 0, 7, 12.35326957702637
0, 0, 8, 3.772700786590576
0, 0, 9, 2.956912040710449
0, 0, 10, 6.927314758300781
0, 0, 11, 3.458854675292969
0, 0, 12, 4.024781227111816
0, 0, 13, 7.704812049865723
0, 0, 14, 6.672940254211426
0, 0, 15, 10.3491153717041
0, 0, 16, 9.077310562133789
0, 0, 17, 8.427191734313965
0, 0, 18, 13.8648681640625
0, 0, 19, 45.96475982666016
0, 0, 20, 139.1251525878906
0, 0, 21, 223.9520263671875
0, 0, 22, 249.2033843994141
0, 0, 23, 256.2379455566406
0, 0, 24, 250.9836578369141
0, 0, 25, 259.6605529785156
0, 0, 26, 233.33056640625
0, 0, 27, 236.1819915771484
0, 0, 28, 271.7918090820312
0, 0, 29, 251.6725769042969
0, 0, 30, 229.4452056884766
0, 0, 31, 243.6977233886719
0, 0, 32, 263.6262512207031
0, 0, 33, 260.7714538574219
0, 0, 34, 287.0809020996094
0, 0, 35, 267.7079772949219
0, 0, 36, 246.4575042724609
0, 0, 37, 254.3260498046875
0, 0, 38, 269.3159484863281
0, 0, 39, 229.9743499755859
0, 0, 40, 244.5774993896484
0, 0, 41, 267.2757873535156
0, 0, 42, 228.287109375
0, 0, 43, 259.5831298828125
0, 0, 44, 252.0404510498047
0, 0, 45, 251.8685760498047
0, 0, 46, 243.7175445556641
0, 0, 47, 254.3643951416016
0, 0, 48, 269.0736389160156
0, 0, 49, 275.0789489746094
0, 0, 50, 251.12060546875
0, 0, 51, 252.6573944091797
0, 0, 52, 272.9809265136719
0, 0, 53, 291.5249328613281
0, 0, 54, 242.3115692138672
0, 0, 55, 239.5072937011719
0, 0, 56, 277.0057067871094
0, 0, 57, 264.3080749511719
0, 0, 58, 246.8301391601562
0, 0, 59, 272.5247192382812
0, 0, 60, 235.5435943603516
0, 0, 61, 245.8641662597656
0, 0, 62, 257.4219665527344
0, 0, 63, 266.8396301269531
0, 0, 64, 256.9041748046875
0, 0, 65, 263.0794982910156
0, 0, 66, 277.3436889648438
0, 0, 67, 247.7785797119141
0, 0, 68, 259.0462036132812
0, 0, 69, 263.4944152832031
0, 0, 70, 273.3253173828125
0, 0, 71, 237.5924072265625
0, 0, 72, 250.2652282714844
0, 0, 73, 256.9231262207031
0, 0, 74, 252.7078399658203
0, 0, 75, 241.3196411132812
0, 0, 76, 227.5544738769531
0, 0, 77, 261.7337646484375
0, 0, 78, 256.1598815917969
0, 0, 79, 276.1764831542969
0, 0, 80, 215.2101440429688
0, 0, 81, 268.2386169433594
0, 0, 82, 257.4465026855469
0, 0, 83, 245.5611572265625
0, 0, 84, 269.9163818359375
0, 0, 85, 231.3940734863281
0, 0, 86, 254.9481506347656
0, 0, 87, 250.6350402832031
0, 0, 88, 259.1542663574219
0, 0, 89, 284.1965942382812
0, 0, 90, 245.0395965576172
0, 0, 91, 280.4971008300781
0, 0, 92, 251.4176483154297
0, 0, 93, 248.7438354492188
0, 0, 94, 247.9833526611328
0, 0, 95, 247.2530670166016
0, 0, 96, 274.6137390136719
0, 0, 97, 272.3081970214844
0, 0, 98, 274.6899108886719
0, 0, 99, 258.7825317382812
0, 0, 100, 261.962158203125
0, 0, 101, 225.9320068359375
0, 0, 102, 232.0952453613281
0, 0, 103, 270.6983947753906
0, 0, 104, 253.4229278564453
0, 0, 105, 251.5454254150391
0, 0, 106, 247.6695709228516
0, 0, 107, 152.1057434082031
0, 0, 108, 37.95591735839844
0, 0, 109, 12.67475509643555
0, 0, 110, 13.50118350982666
0, 0, 111, 9.199984550476074
0, 0, 112, 7.058735370635986
0, 0, 113, 5.776604175567627
0, 0, 114, 6.178013324737549
0, 0, 115, 7.587539672851562
0, 0, 116, 6.704092979431152
0, 0, 117, 6.817096710205078
0, 0, 118, 4.923871994018555
0, 0, 119, 4.588440895080566
0, 0, 120, 3.281269550323486
0, 0, 121, 4.02043628692627
0, 0, 122, 3.129059553146362
0, 0, 123, 3.037832498550415
0, 0, 124, 4.036312580108643
0, 0, 125, 1.942973971366882
0, 0, 126, 4.903049468994141
0, 0, 127, 3.862723827362061
0, 1, 0, 7.048606395721436
0, 1, 1, 2.860576629638672
0, 1, 2, 3.436094999313354
0, 1, 3, 3.708461046218872
0, 1, 4, 3.118243455886841
0, 1, 5, 2.324022531509399
0, 1, 6, 4.990181922912598
0, 1, 7, 2.860876560211182
0, 1, 8, 6.953682899475098
0, 1, 9, 5.260221004486084
0, 1, 10, 5.935624599456787
0, 1, 11, 11.89306735992432
0, 1, 12, 8.33746337890625
0, 1, 13, 9.620754241943359
0, 1, 14, 8.227128982543945
0, 1, 15, 7.326527118682861
0, 1, 16, 12.75939750671387
0, 1, 17, 13.0609130859375
0, 1, 18, 19.97407531738281
0, 1, 19, 68.14942169189453
0, 1, 20, 200.6494750976562
0, 1, 21, 255.0560302734375
0, 1, 22, 296.4819030761719
0, 1, 23, 283.4977416992188
0, 1, 24, 274.2049560546875
0, 1, 25, 288.52294921875
0, 1, 26, 267.8348388671875
0, 1, 27, 306.531005859375
0, 1, 28, 299.7456970214844
0, 1, 29, 297.4399719238281
0, 1, 30, 279.2004089355469
0, 1, 31, 291.7333984375
0, 1, 32, 290.5446472167969
0, 1, 33, 295.486083984375
0, 1, 34, 292.7310485839844
0, 1, 35, 278.57958984375
0, 1, 36, 307.2543640136719
0, 1, 37, 295.8423767089844
0, 1, 38, 281.5379638671875
0, 1, 39, 296.8877563476562
0, 1, 40, 266.0765380859375
0, 1, 41, 285.6968994140625
0, 1, 42, 289.9516296386719
0, 1, 43, 330.5442810058594
0, 1, 44, 277.8941345214844
0, 1, 45, 291.7785339355469
0, 1, 46, 258.8241577148438
0, 1, 47, 312.4320068359375
0, 1, 48, 284.644775390625
0, 1, 49, 303.3837890625
0, 1, 50, 265.2462768554688
0, 1, 51, 274.0479431152344
0, 1, 52, 295.6394653320312
0, 1, 53, 304.9679565429688
0, 1, 54, 274.0890197753906
0, 1, 55, 292.3526611328125
0, 1, 56, 276.0303649902344
0, 1, 57, 296.6322631835938
0, 1, 58, 310.9521484375
0, 1, 59, 293.2907409667969
0, 1, 60, 296.9073486328125
0, 1, 61, 275.0400390625
0, 1, 62, 308.6221313476562
0, 1, 63, 286.41943359375
0, 1, 64, 291.0889282226562
0, 1, 65, 294.6332397460938
0, 1, 66, 292.5363464355469
0, 1, 67, 292.1409301757812
0, 1, 68, 277.1411437988281
0, 1, 69, 281.0369567871094
0, 1, 70, 272.6802673339844
0, 1, 71, 273.8043518066406
0, 1, 72, 285.1110229492188
0, 1, 73, 305.0640258789062
0, 1, 74, 303.9258728027344
0, 1, 75, 291.922119140625
0, 1, 76, 285.6962890625
0, 1, 77, 288.7509460449219
0, 1, 78, 300.0003356933594
0, 1, 79, 300.7046508789062
0, 1, 80, 297.4609680175781
0, 1, 81, 305.477294921875
0, 1, 82, 283.6055603027344
0, 1, 83, 330.1880798339844
0, 1, 84, 308.7940979003906
0, 1, 85, 251.5529327392578
0, 1, 86, 293.87060546875
0, 1, 87, 290.5178527832031
0, 1, 88, 299.2076110839844
0, 1, 89, 290.1102294921875
0, 1, 90, 268.9806518554688
0, 1, 91, 317.0252990722656
0, 1, 92, 291.838623046875
0, 1, 93, 287.898681640625
0, 1, 94, 304.4519653320312
0, 1, 95, 285.3897705078125
0, 1, 96, 284.2244262695312
0, 1, 97, 301.7192077636719
0, 1, 98, 275.9312133789062
0, 1, 99, 265.0361938476562
0, 1, 100, 277.5369873046875
0, 1, 101, 282.2947998046875
0, 1, 102, 277.3825073242188
0, 1, 103, 280.8167114257812
0, 1, 104, 305.3268127441406
0, 1, 105, 297.1027526855469
0, 1, 106, 261.7974853515625
0, 1, 107, 192.7672424316406
0, 1, 108, 80.234130859375
0, 1, 109, 23.3651180267334
0, 1, 110, 12.00746536254883
0, 1, 111, 7.806095123291016
0, 1, 112, 13.45329189300537
0, 1, 113, 6.380754470825195
0, 1, 114, 6.362151145935059
0, 1, 115, 5.959276676177979
0, 1, 116, 11.02420806884766
0, 1, 117, 7.830295562744141
0, 1, 118, 4.440228939056396
0, 1, 119, 7.459083557128906
0, 1, 120, 6.932837009429932
0, 1, 121, 3.161479949951172
0, 1, 122, 2.418917179107666
0, 1, 123, 3.799532651901245
0, 1, 124, 10.31817436218262
0, 1, 125, 6.099774360656738
0, 1, 126, 2.627600193023682
0, 1, 127, 2.096103191375732
0, 2, 0, 3.521131753921509
0, 2, 1, 2.72013521194458
0, 2, 2, 3.092043399810791
0, 2, 3, 5.631613731384277
0, 2, 4, 3.410980701446533
0, 2, 5, 2.211726188659668
0, 2, 6, 2.145420074462891
0, 2, 7, 3.391871213912964
0, 2, 8, 3.919155836105347
0, 2, 9, 5.249217987060547
0, 2, 10, 7.443069458007812
0, 2, 11, 6.24326753616333
0, 2, 12, 7.765454292297363
0, 2, 13, 10.31724548339844
0, 2, 14, 10.71178150177002
0, 2, 15, 7.172207355499268
0, 2, 16, 8.948315620422363
0, 2, 17, 16.87035942077637
0, 2, 18, 33.25248336791992
0, 2, 19, 115.0124740600586
0, 2, 20, 246.8926696777344
0, 2, 21, 271.8124389648438
0, 2, 22, 315.3913879394531
0, 2, 23, 300.5098571777344
0, 2, 24, 285.4400329589844
0, 2, 25, 301.5162353515625
0, 2, 26, 292.6670227050781
0, 2, 27, 275.7114562988281
0, 2, 28, 274.7614440917969
0, 2, 29, 274.9166564941406
0, 2, 30, 288.9612426757812
0, 2, 31, 277.3180541992188
0, 2, 32, 294.9720153808594
0, 2, 33, 281.7266845703125
0, 2, 34, 334.6410217285156
0, 2, 35, 291.7663879394531
0, 2, 36, 303.9927368164062
0, 2, 37, 314.8871459960938
0, 2, 38, 310.0874938964844
0, 2, 39, 267.8369140625
0, 2, 40, 308.1203002929688
0, 2, 41, 292.6707153320312
0, 2, 42, 305.1092529296875
0, 2, 43, 310.7311401367188
0, 2, 44, 314.4786987304688
0, 2, 45, 326.326171875
0, 2, 46, 287.2454833984375
0, 2, 47, 303.5682983398438
0, 2, 48, 279.475830078125
0, 2, 49, 279.4808959960938
0, 2, 50, 294.5434875488281
0, 2, 51, 285.1972961425781
0, 2, 52, 272.6908264160156
0, 2, 53, 287.056396484375
0, 2, 54, 281.8229370117188
0, 2, 55, 276.7978820800781
0, 2, 56, 302.507568359375
0, 2, 57, 291.5659790039062
0, 2, 58, 302.9281921386719
0, 2, 59, 290.0081176757812
0, 2, 60, 319.0142211914062
0, 2, 61, 301.5137329101562
0, 2, 62, 313.1205749511719
0, 2, 63, 301.7225952148438
0, 2, 64, 296.8961791992188
0, 2, 65, 312.5230712890625
0, 2, 66, 279.1761474609375
0, 2, 67, 291.4413452148438
0, 2, 68, 296.066650390625
0, 2, 69, 309.6418151855469
0, 2, 70, 335.4853820800781
0, 2, 71, 283.6730651855469
0, 2, 72, 300.6309204101562
0, 2, 73, 310.6417236328125
0, 2, 74, 286.7952880859375
0, 2, 75, 303.3925476074219
0, 2, 76, 288.3464965820312
0, 2, 77, 302.0455322265625
0, 2, 78, 318.4027099609375
0, 2, 79, 311.2605590820312
0, 2, 80, 296.5368957519531
0, 2, 81, 280.83447265625
0, 2, 82, 319.6636657714844
0, 2, 83, 315.0875549316406
0, 2, 84, 288.5526123046875
0, 2, 85, 282.6772155761719
0, 2, 86, 327.162353515625
0, 2, 87, 288.035888671875
0, 2, 88, 282.9143371582031
0, 2, 89, 296.2480163574219
0, 2, 90, 294.9799194335938
0, 2, 91, 275.6474609375
0, 2, 92, 304.9407958984375
0, 2, 93, 316.4833679199219
0, 2, 94, 290.4934387207031
0, 2, 95, 313.86865234375
0, 2, 96, 315.9494323730469
0, 2, 97, 292.1426391601562
0, 2, 98, 294.3999328613281
0, 2, 99, 273.0185546875
0, 2, 100, 306.795654296875
0, 2, 101, 302.3945007324219
0, 2, 102, 296.5998840332031
0, 2, 103, 291.3147277832031
0, 2, 104, 292.8063049316406
0, 2, 105, 273.7693786621094
0, 2, 106, 295.2727661132812
0, 2, 107, 269.5868835449219
0, 2, 108, 116.4506149291992
0, 2, 109, 31.58413314819336
0, 2, 110, 9.757279396057129
0, 2, 111, 9.879302024841309
0, 2, 112, 9.162225723266602
0, 2, 113, 9.595829963684082
0, 2, 114, 9.284919738769531
0, 2, 115, 9.366783142089844
0, 2, 116, 10.35323143005371
0, 2, 117, 5.078317642211914
0, 2, 118, 2.980379581451416
0, 2, 119, 3.181757688522339
0, 2, 120, 5.727964401245117
0, 2, 121, 3.321703195571899
0, 2, 122, 4.648204803466797
0, 2, 123, 4.808646678924561
0, 2, 124, 7.908646106719971
0, 2, 125, 7.325118064880371
0, 2, 126, 5.144442081451416
0, 2, 127, 4.82648754119873
0, 3, 0, 3.999413967132568
0, 3, 1, 4.089485645294189
0, 3, 2, 4.062410354614258
0, 3, 3, 3.956510305404663
0, 3, 4, 4.832540512084961
0, 3, 5, 7.139016628265381
0, 3, 6, 5.984504699707031
0, 3, 7, 5.175925254821777
0, 3, 8, 6.092804431915283
0, 3, 9, 7.058732986450195
0, 3, 10, 7.247958660125732
0, 3, 11, 4.420226097106934
0, 3, 12, 6.625537872314453
0, 3, 13, 15.71285057067871
0, 3, 14, 12.1555871963501
0, 3, 15, 13.02485656738281
0, 3, 16, 11.98671817779541
0, 3, 17, 20.78097534179688
0, 3, 18, 52.65450668334961
0, 3, 19, 175.5551147460938
0, 3, 20, 268.9927368164062
0, 3, 21, 271.1959228515625
0, 3, 22, 281.5666198730469
0, 3, 23, 285.5947875976562
0, 3, 24, 285.8579406738281
0, 3, 25, 272.3439636230469
0, 3, 26, 303.7926330566406
0, 3, 27, 293.0796508789062
0, 3, 28, 282.6613159179688
0, 3, 29, 339.4963684082031
0, 3, 30, 315.8240966796875
0, 3, 31, 289.3581848144531
0, 3, 32, 307.9424438476562
0, 3, 33, 313.4973449707031
0, 3, 34, 320.405029296875
0, 3, 35, 305.1385498046875
0, 3, 36, 270.2541198730469
0, 3, 37, 313.0015258789062
0, 3, 38, 304.1191711425781
0, 3, 39, 294.7743530273438
0, 3, 40, 269.0126953125
0, 3, 41, 301.3145446777344
0, 3, 42, 288.891357421875
0, 3, 43, 307.2145080566406
0, 3, 44, 312.1436157226562
0, 3, 45, 292.0355834960938
0, 3, 46, 329.3561401367188
0, 3, 47, 298.9757690429688
0, 3, 48, 307.7095947265625
0, 3, 49, 278.90966796875
0, 3, 50, 289.3316040039062
0, 3, 51, 274.9948425292969
0, 3, 52, 313.9411315917969
0, 3, 53, 289.5141296386719
0, 3, 54, 283.9683532714844
0, 3, 55, 285.5324401855469
0, 3, 56, 299.5848388671875
0, 3, 57, 289.3454284667969
0, 3, 58, 309.1307373046875
0, 3, 59, 294.1068725585938
0, 3, 60, 297.3848876953125
0, 3, 61, 266.2423400878906
0, 3, 62, 288.2231750488281
0, 3, 63, 309.9651489257812
0, 3, 64, 317.3902893066406
0, 3, 65, 306.7708435058594
0, 3, 66, 315.2586364746094
0, 3, 67, 320.7545166015625
0, 3, 68, 282.777099609375
0, 3, 69, 281.56884765625
0, 3, 70, 289.5648193359375
0, 3, 71, 298.0809631347656
0, 3, 72, 268.9923706054688
0, 3, 73, 307.0122985839844
0, 3, 74, 292.0687255859375
0, 3, 75, 290.541748046875
0, 3, 76, 307.9694213867188
0, 3, 77, 315.0556335449219
0, 3, 78, 304.5328674316406
0, 3, 79, 283.6388549804688
0, 3, 80, 292.4312744140625
0, 3, 81, 309.6355590820312
0, 3, 82, 314.4309997558594
0, 3, 83, 301.0285339355469
0, 3, 84, 312.6007690429688
0, 3, 85, 293.6318664550781
0, 3, 86, 302.2717590332031
0, 3, 87, 297.6517028808594
0, 3, 88, 302.6878051757812
0, 3, 89, 297.4259033203125
0, 3, 90, 275.2202758789062
0, 3, 91, 283.8328247070312
0, 3, 92, 302.5868835449219
0, 3, 93, 313.8335876464844
0, 3, 94, 300.1853332519531
0, 3, 95, 334.2034912109375
0, 3, 96, 292.0987548828125
0, 3, 97, 281.6777038574219
0, 3, 98, 278.3624572753906
0, 3, 99, 261.6650695800781
0, 3, 100, 284.0084533691406
0, 3, 101, 296.9229736328125
0, 3, 102, 274.1650085449219
0, 3, 103, 320.9781188964844
0, 3, 104, 307.8028259277344
0, 3, 105, 289.7630920410156
0, 3, 106, 302.8548278808594
0, 3, 107, 282.3467102050781
0, 3, 108, 167.7604370117188
0, 3, 109, 58.20208358764648
0, 3, 110, 19.38434600830078
0, 3, 111, 12.75713920593262
0, 3, 112, 11.7282133102417
0, 3, 113, 9.912569046020508
0, 3, 114, 12.06624412536621
0, 3, 115, 7.781987190246582
0, 3, 116, 7.099581241607666
0, 3, 117, 7.971571922302246
0, 3, 118, 7.127110481262207
0, 3, 119, 5.72094202041626
0, 3, 120, 5.877964019775391
0, 3, 121, 3.828929662704468
0, 3, 122, 2.466305494308472
0, 3, 123, 5.542562484741211
0, 3, 124, 2.595830917358398
0, 3, 125, 7.537701606750488
0, 3, 126, 5.564354419708252
0, 3, 127, 2.713013887405396
0, 4, 0, 2.402901887893677
0, 4, 1, 5.506429195404053
0, 4, 2, 3.764157056808472
0, 4, 3, 2.440064191818237
0, 4, 4, 6.5763258934021
0, 4, 5, 8.721561431884766
0, 4, 6, 6.785555362701416
0, 4, 7, 5.255326271057129
0, 4, 8, 3.411675930023193
0, 4, 9, 6.182300090789795
0, 4, 10, 9.097329139709473
0, 4, 11, 5.672256469726562
0, 4, 12, 8.069619178771973
0, 4, 13, 7.101781368255615
0, 4, 14, 12.00406360626221
0, 4, 15, 11.68059921264648
0, 4, 16, 13.46203422546387
0, 4, 17, 18.19270706176758
0, 4, 18, 93.61792755126953
0, 4, 19, 222.5232849121094
0, 4, 20, 285.9060363769531
0, 4, 21, 273.2510986328125
0, 4, 22, 303.7590942382812
0, 4, 23, 267.4662780761719
0, 4, 24, 289.367919921875
0, 4, 25, 272.9096984863281
0, 4, 26, 295.5460815429688
0, 4, 27, 282.3783264160156
0, 4, 28, 304.9723205566406
0, 4, 29, 321.780517578125
0, 4, 30, 309.9658203125
0, 4, 31, 304.1582946777344
0, 4, 32, 280.9735412597656
0, 4, 33, 296.6086730957031
0, 4, 34, 299.7288818359375
0, 4, 35, 314.6419372558594
0, 4, 36, 294.0119934082031
0, 4, 37, 289.4112548828125
0, 4, 38, 296.3929748535156
0, 4, 39, 292.5696411132812
0, 4, 40, 301.575439453125
0, 4, 41, 312.3479919433594
0, 4, 42, 329.1520690917969
0, 4, 43, 296.3985290527344
0, 4, 44, 320.7752990722656
0, 4, 45, 325.9427795410156
0, 4, 46, 305.530517578125
0, 4, 47, 294.3945617675781
0, 4, 48, 295.43798828125
0, 4, 49, 278.8012084960938
0, 4, 50, 297.5874328613281
0, 4, 51, 315.0695190429688
0, 4, 52, 327.26220703125
0, 4, 53, 303.8611145019531
0, 4, 54, 286.3410034179688
0, 4, 55, 314.2273254394531
0, 4, 56, 286.4949645996094
0, 4, 57, 308.6611938476562
0, 4, 58, 296.5769958496094
0, 4, 59, 307.3851928710938
0, 4, 60, 302.2533569335938
0, 4, 61, 315.2829895019531
0, 4, 62, 307.30859375
0, 4, 63, 301.2277526855469
0, 4, 64, 328.6036376953125
0, 4, 65, 316.8753662109375
0, 4, 66, 296.40087890625
0, 4, 67, 284.4635620117188
0, 4, 68, 315.6697082519531
0, 4, 69, 275.9546203613281
0, 4, 70, 300.8254089355469
0, 4, 71, 321.30615234375
0, 4, 72, 331.106689453125
0, 4, 73, 300.8836669921875
0, 4, 74, 292.0041198730469
0, 4, 75, 287.2719116210938
0, 4, 76, 278.3761901855469
0, 4, 77, 277.2203369140625
0, 4, 78, 310.1963806152344
0, 4, 79, 318.0696716308594
0, 4, 80, 314.9726867675781
0, 4, 81, 312.49072265625
0, 4, 82, 300.139404296875
0, 4, 83, 302.6766357421875
0, 4, 84, 294.2100830078125
0, 4, 85, 294.6021423339844
0, 4, 86, 298.7551574707031
0, 4, 87, 283.5355529785156
0, 4, 88, 308.1436767578125
0, 4, 89, 295.3132629394531
0, 4, 90, 333.3744201660156
0, 4, 91, 301.7695007324219
0, 4, 92, 290.7744445800781
0, 4, 93, 297.3473510742188
0, 4, 94, 290.898193359375
0, 4, 95, 289.1759033203125
0, 4, 96, 324.3889770507812
0, 4, 97, 274.5576782226562
0, 4, 98, 326.2383728027344
0, 4, 99, 313.5686340332031
0, 4, 100, 300.4519348144531
0, 4, 101, 256.45751953125
0, 4, 102, 298.0362243652344
0, 4, 103, 315.7864685058594
0, 4, 104, 283.9160766601562
0, 4, 105, 310.1807250976562
0, 4, 106, 285.8016052246094
0, 4, 107, 293.4928283691406
0, 4, 108, 227.1954040527344
0, 4, 109, 79.3466796875
0, 4, 110, 16.81943702697754
0, 4, 111, 14.2435998916626
0, 4, 112, 8.895508766174316
0, 4, 113, 9.270926475524902
0, 4, 114, 8.248034477233887
0, 4, 115, 10.24664783477783
0, 4, 116, 9.347434043884277
0, 4, 117, 6.829093933105469
0, 4, 118, 9.283572196960449
0, 4, 119, 9.713667869567871
0, 4, 120, 5.379709720611572
0, 4, 121, 4.879741668701172
0, 4, 122, 3.519108295440674
0, 4, 123, 8.981610298156738
0, 4, 124, 4.334194183349609
0, 4, 125, 9.035414695739746
0, 4, 126, 5.712531089782715
0, 4, 127, 3.279980897903442
0, 5, 0, 4.003725051879883
0, 5, 1, 3.513474941253662
0, 5, 2, 3.115144968032837
0, 5, 3, 5.310407638549805
0, 5, 4, 6.144513130187988
0, 5, 5, 4.227811813354492
0, 5, 6, 9.003866195678711
0, 5, 7, 6.709234714508057
0, 5, 8, 4.377126693725586
0, 5, 9, 4.708602905273438
0, 5, 10, 6.517309188842773
0, 5, 11, 8.385632514953613
0, 5, 12, 7.165308952331543
0, 5, 13, 5.281897068023682
0, 5, 14, 11.46559810638428
0, 5, 15, 16.51764488220215
0, 5, 16, 14.74972152709961
0, 5, 17, 28.36450576782227
0, 5, 18, 136.0271911621094
0, 5, 19, 287.8861694335938
0, 5, 20, 307.8627014160156
0, 5, 21, 317.2050476074219
0, 5, 22, 275.8755187988281
0, 5, 23, 311.4070434570312
0, 5, 24, 305.5354919433594
0, 5, 25, 287.7951965332031
0, 5, 26, 296.1778869628906
0, 5, 27, 322.0066528320312
0, 5, 28, 302.7357177734375
0, 5, 29, 299.1389770507812
0, 5, 30, 324.7012939453125
0, 5, 31, 287.5686645507812
0, 5, 32, 302.5968933105469
0, 5, 33, 304.6045227050781
0, 5, 34, 299.1550598144531
0, 5, 35, 309.0327758789062
0, 5, 36, 269.8614196777344
0, 5, 37, 281.7218017578125
0, 5, 38, 292.7566528320312
0, 5, 39, 312.25341796875
0, 5, 40, 308.7322387695312
0, 5, 41, 272.7720336914062
0, 5, 42, 305.0574951171875
0, 5, 43, 315.0177001953125
0, 5, 44, 291.7109680175781
0, 5, 45, 304.7226257324219
0, 5, 46, 264.9935913085938
0, 5, 47, 282.0103759765625
0, 5, 48, 292.8272399902344
0, 5, 49, 286.3333740234375
0, 5, 50, 293.8076782226562
0, 5, 51, 281.7301330566406
0, 5, 52, 271.857177734375
0, 5, 53, 282.8919067382812
0, 5, 54, 291.7457275390625
0, 5, 55, 343.8530578613281
0, 5, 56, 305.9051818847656
0, 5, 57, 308.2875366210938
0, 5, 58, 311.8873291015625
0, 5, 59, 303.1885375976562
0, 5, 60, 306.5187377929688
0, 5, 61, 281.8955993652344
0, 5, 62, 325.8096618652344
0, 5, 63, 290.9801025390625
0, 5, 64, 322.3536987304688
0, 5, 65, 308.6892395019531
0, 5, 66, 326.8227233886719
0, 5, 67, 316.2897033691406
0, 5, 68, 307.800048828125
0, 5, 69, 309.6281127929688
0, 5, 70, 299.1182861328125
0, 5, 71, 272.2969055175781
0, 5, 72, 310.8453674316406
0, 5, 73, 302.3874206542969
0, 5, 74, 296.8599243164062
0, 5, 75, 294.7660522460938
0, 5, 76, 285.4052124023438
0, 5, 77, 300.8148193359375
0, 5, 78, 314.4960021972656
0, 5, 79, 308.0280151367188
0, 5, 80, 294.2073364257812
0, 5, 81, 324.8148193359375
0, 5, 82, 325.0759887695312
0, 5, 83, 282.7798156738281
0, 5, 84, 300.9023742675781
0, 5, 85, 270.6757202148438
0, 5, 86, 325.9393615722656
0, 5, 87, 286.7012023925781
0, 5, 88, 316.1997375488281
0, 5, 89, 305.0063171386719
0, 5, 90, 316.1615600585938
0, 5, 91, 313.2953491210938
0, 5, 92, 296.5330200195312
0, 5, 93, 321.9408264160156
0, 5, 94, 310.4957885742188
0, 5, 95, 295.1145629882812
0, 5, 96, 299.1473999023438
0, 5, 97, 296.7576599121094
0, 5, 98, 317.4700622558594
0, 5, 99, 303.3716125488281
0, 5, 100, 291.9002380371094
0, 5, 101, 305.674072265625
0, 5, 102, 293.1341857910156
0, 5, 103, 315.0878601074219
0, 5, 104, 302.1720886230469
0, 5, 105, 292.5984191894531
0, 5, 106, 280.9739685058594
0, 5, 107, 294.6557312011719
0, 5, 108, 265.3844909667969
0, 5, 109, 159.0518035888672
0, 5, 110, 40.45597457885742
0, 5, 111, 21.18515014648438
0, 5, 112, 15.81952285766602
0, 5, 113, 14.44730663299561
0, 5, 114, 12.48274612426758
0, 5, 115, 7.469964504241943
0, 5, 116, 8.623048782348633
0, 5, 117, 7.098841190338135
0, 5, 118, 13.02003192901611
0, 5, 119, 3.21286678314209
0, 5, 120, 6.046136856079102
0, 5, 121, 7.474891662597656
0, 5, 122, 4.988734245300293
0, 5, 123, 4.996417045593262
0, 5, 124, 5.214504718780518
0, 5, 125, 5.097560405731201
0, 5, 126, 4.989563941955566
0, 5, 127, 4.052501678466797
0, 6, 0, 3.746318101882935
0, 6, 1, 4.544637203216553
0, 6, 2, 5.70075511932373
0, 6, 3, 7.083545207977295
0, 6, 4, 3.333135843276978
0, 6, 5, 5.82052755355835
0, 6, 6, 10.86650276184082
0, 6, 7, 6.64039134979248
0, 6, 8, 9.349100112915039
0, 6, 9, 7.658727169036865
0, 6, 10, 8.300002098083496
0, 6, 11, 6.35767650604248
0, 6, 12, 8.442951202392578
0, 6, 13, 12.85480499267578
0, 6, 14, 9.399090766906738
0, 6, 15, 17.99542808532715
0, 6, 16, 26.89723968505859
0, 6, 17, 55.35300827026367
0, 6, 18, 172.1681976318359
0, 6, 19, 275.061767578125
0, 6, 20, 291.1068420410156
0, 6, 21, 314.5720825195312
0, 6, 22, 321.0830383300781
0, 6, 23, 306.7389526367188
0, 6, 24, 316.1065979003906
0, 6, 25, 316.3934326171875
0, 6, 26, 319.2343139648438
0, 6, 27, 330.0557250976562
0, 6, 28, 295.0162658691406
0, 6, 29, 330.3651733398438
0, 6, 30, 283.4457092285156
0, 6, 31, 286.3124694824219
0, 6, 32, 342.1978759765625
0, 6, 33, 298.8976745605469
0, 6, 34, 340.7655639648438
0, 6, 35, 320.6061096191406
0, 6, 36, 273.426025390625
0, 6, 37, 291.0231323242188
0, 6, 38, 310.0272521972656
0, 6, 39, 299.4070129394531
0, 6, 40, 284.3937072753906
0, 6, 41, 297.562744140625
0, 6, 42, 302.4724731445312
0, 6, 43, 290.7882690429688
0, 6, 44, 281.2332763671875
0, 6, 45, 321.747802734375
0, 6, 46, 302.085205078125
0, 6, 47, 334.6820983886719
0, 6, 48, 293.9743041992188
0, 6, 49, 310.7018432617188
0, 6, 50, 327.5410766601562
0, 6, 51, 311.8892822265625
0, 6, 52, 322.5516357421875
0, 6, 53, 327.4904174804688
0, 6, 54, 303.769775390625
0, 6, 55, 306.0910339355469
0, 6, 56, 293.8057861328125
0, 6, 57, 312.4145202636719
0, 6, 58, 261.4193420410156
0, 6, 59, 299.2055358886719
0, 6, 60, 313.0299072265625
0, 6, 61, 271.1656799316406
0, 6, 62, 337.8782653808594
0, 6, 63, 323.669677734375
0, 6, 64, 291.4929809570312
0, 6, 65, 284.6473388671875
0, 6, 66, 301.808837890625
0, 6, 67, 309.1469116210938
0, 6, 68, 295.0014038085938
0, 6, 69, 279.2166442871094
0, 6, 70, 274.6792297363281
0, 6, 71, 288.8011779785156
0, 6, 72, 311.3167724609375
0, 6, 73, 295.2872009277344
0, 6, 74, 329.6742553710938
0, 6, 75, 344.4395751953125
0, 6, 76, 297.0457153320312
0, 6, 77, 285.6559448242188
0, 6, 78, 278.0354614257812
0, 6, 79, 293.5731201171875
0, 6, 80, 302.4732971191406
0, 6, 81, 317.5167541503906
0, 6, 82, 317.8141174316406
0, 6, 83, 318.2633361816406
0, 6, 84, 296.2507629394531
0, 6, 85, 301.8268432617188
0, 6, 86, 329.2831115722656
0, 6, 87, 288.7935485839844
0, 6, 88, 306.8980712890625
0, 6, 89, 305.7315979003906
0, 6, 90, 297.8809814453125
0, 6, 91, 312.6020202636719
0, 6, 92, 284.8382568359375
0, 6, 93, 296.3407592773438
0, 6, 94, 277.0117797851562
0, 6, 95, 300.6403503417969
0, 6, 96, 346.7092590332031
0, 6, 97, 310.4091186523438
0, 6, 98, 301.1321716308594
0, 6, 99, 270.0700073242188
0, 6, 100, 308.9954528808594
0, 6, 101, 293.1422729492188
0, 6, 102, 306.1029663085938
0, 6, 103, 309.3805847167969
0, 6, 104, 293.1306457519531
0, 6, 105, 303.3400573730469
0, 6, 106, 306.2471313476562
0, 6, 107, 306.7791442871094
0, 6, 108, 268.4908752441406
0, 6, 109, 185.4120178222656
0, 6, 110, 53.23521423339844
0, 6, 111, 21.52225875854492
0, 6, 112, 13.07521915435791
0, 6, 113, 10.44427871704102
0, 6, 114, 11.60634136199951
0, 6, 115, 10.6613712310791
0, 6, 116, 8.709000587463379
0, 6, 117, 6.134992122650146
0, 6, 118, 8.024648666381836
0, 6, 119, 7.929775714874268
0, 6, 120, 7.057156562805176
0, 6, 121, 8.222420692443848
0, 6, 122, 8.951189994812012
0, 6, 123, 5.465390205383301
0, 6, 124, 8.115264892578125
0, 6, 125, 7.756232738494873
0, 6, 126, 3.31424617767334
0, 6, 127, 5.865961074829102
0, 7, 0, 3.848951101303101
0, 7, 1, 6.709521293640137
0, 7, 2, 8.915006637573242
0, 7, 3, 5.455079078674316
0, 7, 4, 3.716930150985718
0, 7, 5, 4.693570613861084
0, 7, 6, 6.522894382476807
0, 7, 7, 4.574309825897217
0, 7, 8, 4.837323188781738
0, 7, 9, 6.419439792633057
0, 7, 10, 7.956244468688965
0, 7, 11, 11.10388278961182
0, 7, 12, 7.878301620483398
0, 7, 13, 11.87509822845459
0, 7, 14, 10.53951549530029
0, 7, 15, 17.08309745788574
0, 7, 16, 26.97533416748047
0, 7, 17, 96.54776000976562
0, 7, 18, 218.0858612060547
0, 7, 19, 290.7686767578125
0, 7, 20, 298.946044921875
0, 7, 21, 275.7684020996094
0, 7, 22, 298.3921203613281
0, 7, 23, 288.3628234863281
0, 7, 24, 312.537841796875
0, 7, 25, 325.3256530761719
0, 7, 26, 278.5520324707031
0, 7, 27, 297.0446472167969
0, 7, 28, 325.9775085449219
0, 7, 29, 320.2401123046875
0, 7, 30, 302.8384094238281
0, 7, 31, 278.9544677734375
0, 7, 32, 303.197998046875
0, 7, 33, 266.2512817382812
0, 7, 34, 297.956298828125
0, 7, 35, 319.1454467773438
0, 7, 36, 331.8782043457031
0, 7, 37, 324.0946960449219
0, 7, 38, 295.1696166992188
0, 7, 39, 306.6737365722656
0, 7, 40, 289.3387145996094
0, 7, 41, 271.4769592285156
0, 7, 42, 299.4814758300781
0, 7, 43, 273.8549499511719
0, 7, 44, 304.6715087890625
0, 7, 45, 294.3959655761719
0, 7, 46, 279.818115234375
0, 7, 47, 329.4119873046875
0, 7, 48, 285.9765014648438
0, 7, 49, 301.3460998535156
0, 7, 50, 321.2317810058594
0, 7, 51, 297.9723510742188
0, 7, 52, 327.1784973144531
0, 7, 53, 311.8330383300781
0, 7, 54, 324.2276306152344
0, 7, 55, 306.8475036621094
0, 7, 56, 279.0859069824219
0, 7, 57, 281.8390502929688
0, 7, 58, 293.786376953125
0, 7, 59, 295.1364440917969
0, 7, 60, 324.4574890136719
0, 7, 61, 278.759765625
0, 7, 62, 298.3633117675781
0, 7, 63, 293.7601928710938
0, 7, 64, 309.07373046875
0, 7, 65, 330.5688781738281
0, 7, 66, 321.1362915039062
0, 7, 67, 300.48388671875
0, 7, 68, 281.1876831054688
0, 7, 69, 295.5230102539062
0, 7, 70, 299.7147216796875
0, 7, 71, 311.2679748535156
0, 7, 72, 286.5975646972656
0, 7, 73, 296.73193359375
0, 7, 74, 348.1256103515625
0, 7, 75, 321.3117065429688
0, 7, 76, 322.7454528808594
0, 7, 77, 281.291015625
0, 7, 78, 300.2634582519531
0, 7, 79, 297.8404541015625
0, 7, 80, 314.6966247558594
0, 7, 81, 319.8349609375
0, 7, 82, 329.1497802734375
0, 7, 83, 315.96337890625
0, 7, 84, 309.4250183105469
0, 7, 85, 272.0494689941406
0, 7, 86, 310.9991760253906
0, 7, 87, 310.2832946777344
0, 7, 88, 308.7623291015625
0, 7, 89, 294.3223266601562
0, 7, 90, 306.6136169433594
0, 7, 91, 315.1828918457031
0, 7, 92, 289.6692504882812
0, 7, 93, 306.8191528320312
0, 7, 94, 274.1287841796875
0, 7, 95, 297.6600341796875
0, 7, 96, 332.289794921875
0, 7, 97, 296.5229187011719
0, 7, 98, 290.3622741699219
0, 7, 99, 313.5357360839844
0, 7, 100, 281.7846984863281
0, 7, 101, 275.4860229492188
0, 7, 102, 290.1793518066406
0, 7, 103, 293.1408386230469
0, 7, 104, 273.4078979492188
0, 7, 105, 305.4586181640625
0, 7, 106, 318.3471374511719
0, 7, 107, 296.7043151855469
0, 7, 108, 273.6541137695312
0, 7, 109, 239.5725555419922
0, 7, 110, 97.10726928710938
0, 7, 111, 24.99161529541016
0, 7, 112, 14.79170799255371
0, 7, 113, 13.29532814025879
0, 7, 114, 13.13529205322266
0, 7, 115, 11.4633150100708
0, 7, 116, 11.06039333343506
0, 7, 117, 7.270368576049805
0, 7, 118, 7.489525318145752
0, 7, 119, 4.719480037689209
0, 7, 120, 3.815207958221436
0, 7, 121, 6.346029281616211
0, 7, 122, 6.736122608184814
0, 7, 123, 5.097977161407471
0, 7, 124, 3.810944557189941
0, 7, 125, 6.608852863311768
0, 7, 126, 7.213679790496826
0, 7, 127, 3.25277042388916
0, 8, 0, 3.818842887878418
0, 8, 1, 3.612833261489868
0, 8, 2, 6.693766593933105
0, 8, 3, 1.852784872055054
0, 8, 4, 4.575674533843994
0, 8, 5, 6.634188652038574
0, 8, 6, 4.923375129699707
0, 8, 7, 5.221233367919922
0, 8, 8, 6.966684341430664
0, 8, 9, 4.560967445373535
0, 8, 10, 6.624926567077637
0, 8, 11, 10.74617958068848
0, 8, 12, 13.90123558044434
0, 8, 13, 18.73210906982422
0, 8, 14, 12.8814582824707
0, 8, 15, 17.53017997741699
0, 8, 16, 32.19432067871094
0, 8, 17, 131.5734252929688
0, 8, 18, 244.531005859375
0, 8, 19, 298.1436767578125
0, 8, 20, 285.1957702636719
0, 8, 21, 308.5165710449219
0, 8, 22, 295.8730773925781
0, 8, 23, 274.2868957519531
0, 8, 24, 268.4879760742188
0, 8, 25, 275.3775939941406
0, 8, 26, 305.6463623046875
0, 8, 27, 308.9732055664062
0, 8, 28, 305.5904235839844
0, 8, 29, 321.2128295898438
0, 8, 30, 314.2470703125
0, 8, 31, 304.2418518066406
0, 8, 32, 279.6307983398438
0, 8, 33, 292.5772705078125
0, 8, 34, 289.6094970703125
0, 8, 35, 279.1943054199219
0, 8, 36, 314.7365417480469
0, 8, 37, 340.3378295898438
0, 8, 38, 330.8239440917969
0, 8, 39, 280.643310546875
