# TOPAS Version: 3.1.p3
# Parameter File: batch_inserts_8.txt
# Results for scorer Readout_Adipose
# Scored in component: MyBox
# X in 1 bin  of 0.75 cm
# Y in 512 bins of 0.0783984 cm
# Z in 128 bins of 0.078125 cm
# EnergyDeposit ( MeV ) : Sum   
0, 0, 0, 4.284321784973145
0, 0, 1, 1.236852526664734
0, 0, 2, 6.012587070465088
0, 0, 3, 1.643597602844238
0, 0, 4, 3.478176355361938
0, 0, 5, 3.562721967697144
0, 0, 6, 7.525171279907227
0, 0, 7, 9.915220260620117
0, 0, 8, 4.276340961456299
0, 0, 9, 3.020474433898926
0, 0, 10, 5.982532501220703
0, 0, 11, 4.171768188476562
0, 0, 12, 4.560120105743408
0, 0, 13, 5.81537914276123
0, 0, 14, 8.552769660949707
0, 0, 15, 12.65785789489746
0, 0, 16, 8.187811851501465
0, 0, 17, 9.479570388793945
0, 0, 18, 14.12432289123535
0, 0, 19, 42.6440315246582
0, 0, 20, 139.5425872802734
0, 0, 21, 223.9332275390625
0, 0, 22, 249.5986328125
0, 0, 23, 255.8395233154297
0, 0, 24, 250.4442901611328
0, 0, 25, 258.0577087402344
0, 0, 26, 233.9514923095703
0, 0, 27, 236.5763702392578
0, 0, 28, 271.6584777832031
0, 0, 29, 252.6961669921875
0, 0, 30, 229.8897705078125
0, 0, 31, 249.8579864501953
0, 0, 32, 263.1359252929688
0, 0, 33, 261.3366394042969
0, 0, 34, 286.8599853515625
0, 0, 35, 267.4419250488281
0, 0, 36, 246.8058319091797
0, 0, 37, 251.7795867919922
0, 0, 38, 268.0240783691406
0, 0, 39, 229.4577484130859
0, 0, 40, 242.2214660644531
0, 0, 41, 264.4049377441406
0, 0, 42, 228.0957489013672
0, 0, 43, 260.1134643554688
0, 0, 44, 253.1148071289062
0, 0, 45, 252.555419921875
0, 0, 46, 243.7395477294922
0, 0, 47, 252.4683837890625
0, 0, 48, 266.7192993164062
0, 0, 49, 274.2747192382812
0, 0, 50, 252.2671661376953
0, 0, 51, 252.7328491210938
0, 0, 52, 272.6783752441406
0, 0, 53, 293.3675231933594
0, 0, 54, 244.0530548095703
0, 0, 55, 239.72021484375
0, 0, 56, 276.6578369140625
0, 0, 57, 262.4226989746094
0, 0, 58, 245.7566680908203
0, 0, 59, 271.20361328125
0, 0, 60, 235.2071838378906
0, 0, 61, 245.3946228027344
0, 0, 62, 258.70263671875
0, 0, 63, 267.1439208984375
0, 0, 64, 255.0274658203125
0, 0, 65, 262.0403442382812
0, 0, 66, 277.1132202148438
0, 0, 67, 245.8191833496094
0, 0, 68, 257.8821105957031
0, 0, 69, 262.6423034667969
0, 0, 70, 271.3702697753906
0, 0, 71, 236.8981475830078
0, 0, 72, 250.6924133300781
0, 0, 73, 257.5270080566406
0, 0, 74, 252.1910095214844
0, 0, 75, 241.3359985351562
0, 0, 76, 227.9950866699219
0, 0, 77, 261.4578552246094
0, 0, 78, 257.61328125
0, 0, 79, 276.142578125
0, 0, 80, 215.7760772705078
0, 0, 81, 267.8440551757812
0, 0, 82, 256.0116882324219
0, 0, 83, 243.0628662109375
0, 0, 84, 269.3234252929688
0, 0, 85, 232.4693145751953
0, 0, 86, 251.9456481933594
0, 0, 87, 250.3053436279297
0, 0, 88, 261.9409790039062
0, 0, 89, 284.6419677734375
0, 0, 90, 244.0599060058594
0, 0, 91, 280.6700134277344
0, 0, 92, 252.4530944824219
0, 0, 93, 250.4851837158203
0, 0, 94, 249.4921722412109
0, 0, 95, 247.1098175048828
0, 0, 96, 273.9338684082031
0, 0, 97, 273.7856140136719
0, 0, 98, 271.8239135742188
0, 0, 99, 259.2620239257812
0, 0, 100, 258.1083984375
0, 0, 101, 225.2624664306641
0, 0, 102, 232.4746551513672
0, 0, 103, 270.661865234375
0, 0, 104, 254.0719299316406
0, 0, 105, 251.4544830322266
0, 0, 106, 245.4499969482422
0, 0, 107, 151.385498046875
0, 0, 108, 37.7361946105957
0, 0, 109, 13.31021118164062
0, 0, 110, 13.49662780761719
0, 0, 111, 10.07825946807861
0, 0, 112, 6.864598751068115
0, 0, 113, 4.705206871032715
0, 0, 114, 6.345963478088379
0, 0, 115, 5.678936004638672
0, 0, 116, 7.708020687103271
0, 0, 117, 5.3708815574646
0, 0, 118, 5.586432456970215
0, 0, 119, 4.815444469451904
0, 0, 120, 4.065425872802734
0, 0, 121, 3.782085180282593
0, 0, 122, 3.287056684494019
0, 0, 123, 5.098128318786621
0, 0, 124, 7.346945762634277
0, 0, 125, 2.547676563262939
0, 0, 126, 4.40347957611084
0, 0, 127, 2.548389196395874
0, 1, 0, 7.869930267333984
0, 1, 1, 2.41406512260437
0, 1, 2, 3.28704309463501
0, 1, 3, 2.615219116210938
0, 1, 4, 2.244749069213867
0, 1, 5, 2.425927400588989
0, 1, 6, 5.467990398406982
0, 1, 7, 3.521765232086182
0, 1, 8, 5.0725998878479
0, 1, 9, 4.380297183990479
0, 1, 10, 6.985446453094482
0, 1, 11, 11.39791870117188
0, 1, 12, 8.709343910217285
0, 1, 13, 9.647814750671387
0, 1, 14, 7.567468166351318
0, 1, 15, 8.120705604553223
0, 1, 16, 13.40729999542236
0, 1, 17, 9.81340503692627
0, 1, 18, 20.82354736328125
0, 1, 19, 67.70206451416016
0, 1, 20, 200.9186096191406
0, 1, 21, 255.8555450439453
0, 1, 22, 297.1781921386719
0, 1, 23, 285.0410461425781
0, 1, 24, 278.4616394042969
0, 1, 25, 290.5683898925781
0, 1, 26, 267.3994750976562
0, 1, 27, 306.8424377441406
0, 1, 28, 298.5451049804688
0, 1, 29, 295.4402770996094
0, 1, 30, 282.1745300292969
0, 1, 31, 291.6851196289062
0, 1, 32, 289.7827758789062
0, 1, 33, 295.3855285644531
0, 1, 34, 293.6451416015625
0, 1, 35, 280.4525451660156
0, 1, 36, 305.2994079589844
0, 1, 37, 296.9169616699219
0, 1, 38, 283.7343444824219
0, 1, 39, 295.0116271972656
0, 1, 40, 267.8635864257812
0, 1, 41, 285.6679382324219
0, 1, 42, 289.5964965820312
0, 1, 43, 332.3140563964844
0, 1, 44, 278.531494140625
0, 1, 45, 292.9484558105469
0, 1, 46, 258.0712280273438
0, 1, 47, 311.3959655761719
0, 1, 48, 283.4503173828125
0, 1, 49, 302.0674133300781
0, 1, 50, 263.8428649902344
0, 1, 51, 271.90576171875
0, 1, 52, 296.3735656738281
0, 1, 53, 304.9409790039062
0, 1, 54, 274.154052734375
0, 1, 55, 292.7378540039062
0, 1, 56, 276.6429138183594
0, 1, 57, 296.3818359375
0, 1, 58, 310.9402160644531
0, 1, 59, 291.1886291503906
0, 1, 60, 296.6864624023438
0, 1, 61, 275.6387939453125
0, 1, 62, 307.4616088867188
0, 1, 63, 287.0052185058594
0, 1, 64, 289.1243286132812
0, 1, 65, 293.9842529296875
0, 1, 66, 291.5671691894531
0, 1, 67, 292.1960754394531
0, 1, 68, 277.15283203125
0, 1, 69, 278.9715881347656
0, 1, 70, 269.2218017578125
0, 1, 71, 272.67919921875
0, 1, 72, 286.793701171875
0, 1, 73, 303.4888610839844
0, 1, 74, 303.2953796386719
0, 1, 75, 293.054931640625
0, 1, 76, 286.2466735839844
0, 1, 77, 288.6380615234375
0, 1, 78, 296.4390869140625
0, 1, 79, 304.318359375
0, 1, 80, 295.6883544921875
0, 1, 81, 301.7757568359375
0, 1, 82, 283.9972839355469
0, 1, 83, 330.6073608398438
0, 1, 84, 309.8923645019531
0, 1, 85, 252.7827606201172
0, 1, 86, 293.698974609375
0, 1, 87, 289.2248229980469
0, 1, 88, 297.6301574707031
0, 1, 89, 290.4169311523438
0, 1, 90, 270.0230712890625
0, 1, 91, 319.2010498046875
0, 1, 92, 292.5647583007812
0, 1, 93, 285.2750854492188
0, 1, 94, 304.2310485839844
0, 1, 95, 284.7254333496094
0, 1, 96, 282.9864807128906
0, 1, 97, 300.0265808105469
0, 1, 98, 278.8914184570312
0, 1, 99, 265.9189453125
0, 1, 100, 278.9797668457031
0, 1, 101, 281.021728515625
0, 1, 102, 277.5861511230469
0, 1, 103, 280.8866882324219
0, 1, 104, 305.0895080566406
0, 1, 105, 297.61962890625
0, 1, 106, 260.1704406738281
0, 1, 107, 191.4221038818359
0, 1, 108, 82.28388977050781
0, 1, 109, 26.05636024475098
0, 1, 110, 11.39778804779053
0, 1, 111, 7.587963104248047
0, 1, 112, 10.31647491455078
0, 1, 113, 6.22500467300415
0, 1, 114, 6.16942834854126
0, 1, 115, 5.968451023101807
0, 1, 116, 10.34830665588379
0, 1, 117, 6.862865924835205
0, 1, 118, 5.677197456359863
0, 1, 119, 4.248764514923096
0, 1, 120, 5.545297145843506
0, 1, 121, 5.567023277282715
0, 1, 122, 3.325453758239746
0, 1, 123, 3.748183012008667
0, 1, 124, 9.669917106628418
0, 1, 125, 4.33808708190918
0, 1, 126, 2.382369756698608
0, 1, 127, 2.850123405456543
0, 2, 0, 4.225582122802734
0, 2, 1, 3.837242364883423
0, 2, 2, 3.834806203842163
0, 2, 3, 3.834253072738647
0, 2, 4, 3.561403274536133
0, 2, 5, 2.598043441772461
0, 2, 6, 2.373151063919067
0, 2, 7, 5.102249622344971
0, 2, 8, 6.175651550292969
0, 2, 9, 6.396888732910156
0, 2, 10, 6.967326641082764
0, 2, 11, 6.622494697570801
0, 2, 12, 6.243285655975342
0, 2, 13, 12.56985759735107
0, 2, 14, 10.02291393280029
0, 2, 15, 8.044313430786133
0, 2, 16, 9.880813598632812
0, 2, 17, 16.38855361938477
0, 2, 18, 31.78215789794922
0, 2, 19, 118.3122177124023
0, 2, 20, 246.0868225097656
0, 2, 21, 271.6756286621094
0, 2, 22, 315.7288208007812
0, 2, 23, 299.9140014648438
0, 2, 24, 284.9613952636719
0, 2, 25, 303.343017578125
0, 2, 26, 291.1912536621094
0, 2, 27, 277.3623962402344
0, 2, 28, 271.4193115234375
0, 2, 29, 274.0492553710938
0, 2, 30, 289.5728454589844
0, 2, 31, 280.0402221679688
0, 2, 32, 294.1589050292969
0, 2, 33, 282.2952270507812
0, 2, 34, 335.0263977050781
0, 2, 35, 289.9443054199219
0, 2, 36, 305.8104248046875
0, 2, 37, 315.0944519042969
0, 2, 38, 309.5999145507812
0, 2, 39, 266.740234375
0, 2, 40, 305.3236389160156
0, 2, 41, 294.7842407226562
0, 2, 42, 304.8833312988281
0, 2, 43, 311.6474304199219
0, 2, 44, 312.6111755371094
0, 2, 45, 327.7833557128906
0, 2, 46, 287.4192504882812
0, 2, 47, 303.0733337402344
0, 2, 48, 281.5309448242188
0, 2, 49, 279.7642822265625
0, 2, 50, 294.6163940429688
0, 2, 51, 285.7512512207031
0, 2, 52, 272.9818725585938
0, 2, 53, 287.8568725585938
0, 2, 54, 278.5094604492188
0, 2, 55, 276.3844299316406
0, 2, 56, 301.3297424316406
0, 2, 57, 292.6732177734375
0, 2, 58, 303.0095520019531
0, 2, 59, 288.6268920898438
0, 2, 60, 319.5724487304688
0, 2, 61, 302.5682373046875
0, 2, 62, 311.0513610839844
0, 2, 63, 302.8980712890625
0, 2, 64, 297.8777465820312
0, 2, 65, 314.8063354492188
0, 2, 66, 279.1671752929688
0, 2, 67, 291.2651672363281
0, 2, 68, 296.4042053222656
0, 2, 69, 310.6441345214844
0, 2, 70, 334.553466796875
0, 2, 71, 283.6610107421875
0, 2, 72, 302.4855041503906
0, 2, 73, 310.2641296386719
0, 2, 74, 288.3872985839844
0, 2, 75, 303.5511474609375
0, 2, 76, 288.4116516113281
0, 2, 77, 298.0479736328125
0, 2, 78, 315.7366943359375
0, 2, 79, 307.3720703125
0, 2, 80, 295.7048034667969
0, 2, 81, 283.0635070800781
0, 2, 82, 317.8385009765625
0, 2, 83, 311.7776794433594
0, 2, 84, 288.5240478515625
0, 2, 85, 283.4052734375
0, 2, 86, 323.4358215332031
0, 2, 87, 286.5261840820312
0, 2, 88, 280.2721557617188
0, 2, 89, 300.9283752441406
0, 2, 90, 297.2966003417969
0, 2, 91, 275.8123168945312
0, 2, 92, 305.4384460449219
0, 2, 93, 317.6743774414062
0, 2, 94, 291.8387451171875
0, 2, 95, 315.1666564941406
0, 2, 96, 319.802978515625
0, 2, 97, 291.8641357421875
0, 2, 98, 293.6737365722656
0, 2, 99, 273.4234008789062
0, 2, 100, 305.6520080566406
0, 2, 101, 301.1650085449219
0, 2, 102, 298.9287414550781
0, 2, 103, 292.39453125
0, 2, 104, 291.2243041992188
0, 2, 105, 272.3114013671875
0, 2, 106, 297.3974304199219
0, 2, 107, 269.7286682128906
0, 2, 108, 115.078483581543
0, 2, 109, 31.89336776733398
0, 2, 110, 9.56511402130127
0, 2, 111, 10.21800518035889
0, 2, 112, 7.160403728485107
0, 2, 113, 9.713607788085938
0, 2, 114, 11.97499370574951
0, 2, 115, 10.51116466522217
0, 2, 116, 11.60349941253662
0, 2, 117, 5.885507106781006
0, 2, 118, 5.679140567779541
0, 2, 119, 6.813079833984375
0, 2, 120, 5.790274620056152
0, 2, 121, 1.749672412872314
0, 2, 122, 5.332998275756836
0, 2, 123, 5.708946704864502
0, 2, 124, 3.058639287948608
0, 2, 125, 5.262552261352539
0, 2, 126, 4.305467128753662
0, 2, 127, 3.895502328872681
0, 3, 0, 6.187704086303711
0, 3, 1, 4.366020202636719
0, 3, 2, 2.988173007965088
0, 3, 3, 1.765538215637207
0, 3, 4, 2.330407857894897
0, 3, 5, 6.630644798278809
0, 3, 6, 7.349036693572998
0, 3, 7, 6.352343082427979
0, 3, 8, 8.371053695678711
0, 3, 9, 6.713352203369141
0, 3, 10, 5.645534992218018
0, 3, 11, 3.754473209381104
0, 3, 12, 8.545175552368164
0, 3, 13, 15.081374168396
0, 3, 14, 11.77221584320068
0, 3, 15, 13.72829055786133
0, 3, 16, 11.71500778198242
0, 3, 17, 20.24141120910645
0, 3, 18, 50.8820686340332
0, 3, 19, 174.9715118408203
0, 3, 20, 270.6869812011719
0, 3, 21, 271.2366333007812
0, 3, 22, 280.8218383789062
0, 3, 23, 285.2906188964844
0, 3, 24, 286.0881958007812
0, 3, 25, 268.0258178710938
0, 3, 26, 304.96826171875
0, 3, 27, 295.2963256835938
0, 3, 28, 280.8257751464844
0, 3, 29, 338.9723205566406
0, 3, 30, 316.0186767578125
0, 3, 31, 286.0813293457031
0, 3, 32, 307.4876403808594
0, 3, 33, 314.145263671875
0, 3, 34, 323.6572570800781
0, 3, 35, 307.0531921386719
0, 3, 36, 268.3817443847656
0, 3, 37, 314.3006896972656
0, 3, 38, 304.7499694824219
0, 3, 39, 288.7827453613281
0, 3, 40, 268.8630065917969
0, 3, 41, 299.9099731445312
0, 3, 42, 286.1834106445312
0, 3, 43, 305.9382934570312
0, 3, 44, 312.9351196289062
0, 3, 45, 290.5276794433594
0, 3, 46, 327.8373413085938
0, 3, 47, 300.9654235839844
0, 3, 48, 304.0020751953125
0, 3, 49, 275.2605895996094
0, 3, 50, 290.9235229492188
0, 3, 51, 275.6492614746094
0, 3, 52, 318.1289978027344
0, 3, 53, 289.1202087402344
0, 3, 54, 285.8948974609375
0, 3, 55, 282.4880676269531
0, 3, 56, 298.5007629394531
0, 3, 57, 287.6239318847656
0, 3, 58, 306.7646484375
0, 3, 59, 294.1780700683594
0, 3, 60, 298.6802062988281
0, 3, 61, 264.1248474121094
0, 3, 62, 284.4026489257812
0, 3, 63, 306.0412902832031
0, 3, 64, 319.0484924316406
0, 3, 65, 304.6413269042969
0, 3, 66, 314.0736389160156
0, 3, 67, 318.4041748046875
0, 3, 68, 279.7286682128906
0, 3, 69, 282.4773559570312
0, 3, 70, 289.9608459472656
0, 3, 71, 300.1136779785156
0, 3, 72, 269.200439453125
0, 3, 73, 307.0638732910156
0, 3, 74, 291.8229675292969
0, 3, 75, 291.5445556640625
0, 3, 76, 307.1551818847656
0, 3, 77, 313.3892822265625
0, 3, 78, 303.0970764160156
0, 3, 79, 284.3305969238281
0, 3, 80, 291.6111755371094
0, 3, 81, 312.2357482910156
0, 3, 82, 317.1589050292969
0, 3, 83, 300.7128601074219
0, 3, 84, 315.2559509277344
0, 3, 85, 292.6458435058594
0, 3, 86, 302.6781921386719
0, 3, 87, 296.3517761230469
0, 3, 88, 297.3384399414062
0, 3, 89, 296.0920104980469
0, 3, 90, 274.9466552734375
0, 3, 91, 284.2024230957031
0, 3, 92, 305.2964172363281
0, 3, 93, 314.2196350097656
0, 3, 94, 297.8731079101562
0, 3, 95, 335.4390869140625
0, 3, 96, 290.1524047851562
0, 3, 97, 281.7863464355469
0, 3, 98, 278.2152099609375
0, 3, 99, 264.0672912597656
0, 3, 100, 285.1736450195312
0, 3, 101, 297.541748046875
0, 3, 102, 273.9694519042969
0, 3, 103, 320.6304016113281
0, 3, 104, 309.1281127929688
0, 3, 105, 289.4950256347656
0, 3, 106, 302.7236328125
0, 3, 107, 283.907958984375
0, 3, 108, 169.9918518066406
0, 3, 109, 57.01069259643555
0, 3, 110, 17.70522689819336
0, 3, 111, 12.58967208862305
0, 3, 112, 12.37354946136475
0, 3, 113, 7.746524333953857
0, 3, 114, 11.29998207092285
0, 3, 115, 8.2200927734375
0, 3, 116, 7.220199584960938
0, 3, 117, 6.433491230010986
0, 3, 118, 4.940584182739258
0, 3, 119, 3.551133394241333
0, 3, 120, 4.174663066864014
0, 3, 121, 2.637792348861694
0, 3, 122, 2.387425661087036
0, 3, 123, 6.879043102264404
0, 3, 124, 3.97283935546875
0, 3, 125, 6.286752223968506
0, 3, 126, 4.126657485961914
0, 3, 127, 4.849230766296387
0, 4, 0, 4.95763111114502
0, 4, 1, 6.302227973937988
0, 4, 2, 4.641733646392822
0, 4, 3, 2.2625732421875
0, 4, 4, 6.048540115356445
0, 4, 5, 9.641223907470703
0, 4, 6, 5.970675468444824
0, 4, 7, 4.791599750518799
0, 4, 8, 4.384484767913818
0, 4, 9, 7.328417778015137
0, 4, 10, 8.498587608337402
0, 4, 11, 7.997256278991699
0, 4, 12, 6.181836605072021
0, 4, 13, 7.960238933563232
0, 4, 14, 11.92323017120361
0, 4, 15, 10.72706413269043
0, 4, 16, 13.34623432159424
0, 4, 17, 17.8277587890625
0, 4, 18, 95.82765197753906
0, 4, 19, 224.3739624023438
0, 4, 20, 282.7564086914062
0, 4, 21, 271.4692993164062
0, 4, 22, 305.7726135253906
0, 4, 23, 266.453369140625
0, 4, 24, 289.6126403808594
0, 4, 25, 271.5331115722656
0, 4, 26, 294.9938354492188
0, 4, 27, 285.6625366210938
0, 4, 28, 305.6444396972656
0, 4, 29, 322.3870239257812
0, 4, 30, 309.4322814941406
0, 4, 31, 308.7270812988281
0, 4, 32, 280.3156433105469
0, 4, 33, 297.3853454589844
0, 4, 34, 299.8471069335938
0, 4, 35, 312.1618041992188
0, 4, 36, 293.5191650390625
0, 4, 37, 290.150634765625
0, 4, 38, 298.9903564453125
0, 4, 39, 293.5242614746094
0, 4, 40, 302.3230285644531
0, 4, 41, 310.5025329589844
0, 4, 42, 331.7464294433594
0, 4, 43, 298.0192565917969
0, 4, 44, 322.0825805664062
0, 4, 45, 324.3967895507812
0, 4, 46, 306.5052795410156
0, 4, 47, 292.9234008789062
0, 4, 48, 295.2454833984375
0, 4, 49, 279.1606140136719
0, 4, 50, 296.4000854492188
0, 4, 51, 317.0449523925781
0, 4, 52, 326.183837890625
0, 4, 53, 303.1570129394531
0, 4, 54, 290.6662292480469
0, 4, 55, 315.6030883789062
0, 4, 56, 288.5923767089844
0, 4, 57, 309.4403381347656
0, 4, 58, 294.7341003417969
0, 4, 59, 307.7903747558594
0, 4, 60, 302.9136047363281
0, 4, 61, 316.4459228515625
0, 4, 62, 309.0609741210938
0, 4, 63, 299.3960876464844
0, 4, 64, 331.3205871582031
0, 4, 65, 316.483154296875
0, 4, 66, 294.9883117675781
0, 4, 67, 285.8204650878906
0, 4, 68, 313.9995727539062
0, 4, 69, 278.6276550292969
0, 4, 70, 300.6617126464844
0, 4, 71, 322.814453125
0, 4, 72, 331.8427429199219
0, 4, 73, 301.03369140625
0, 4, 74, 292.5228881835938
0, 4, 75, 288.9003601074219
0, 4, 76, 275.2149658203125
0, 4, 77, 277.8054504394531
0, 4, 78, 308.3839721679688
0, 4, 79, 319.2685852050781
0, 4, 80, 315.2129211425781
0, 4, 81, 315.2497863769531
0, 4, 82, 298.1020812988281
0, 4, 83, 302.4282836914062
0, 4, 84, 291.2222595214844
0, 4, 85, 294.006591796875
0, 4, 86, 299.1204528808594
0, 4, 87, 284.9400024414062
0, 4, 88, 305.0337524414062
0, 4, 89, 293.6837463378906
0, 4, 90, 332.9645080566406
0, 4, 91, 302.9271850585938
0, 4, 92, 288.5871887207031
0, 4, 93, 298.91015625
0, 4, 94, 292.1522521972656
0, 4, 95, 288.4164733886719
0, 4, 96, 324.5231628417969
0, 4, 97, 275.5951843261719
0, 4, 98, 326.0454406738281
0, 4, 99, 314.2074890136719
0, 4, 100, 301.2379455566406
0, 4, 101, 257.8425903320312
0, 4, 102, 296.54443359375
0, 4, 103, 317.7165222167969
0, 4, 104, 282.8583374023438
0, 4, 105, 310.7522583007812
0, 4, 106, 287.0560302734375
0, 4, 107, 294.2843627929688
0, 4, 108, 226.8228149414062
0, 4, 109, 81.21685028076172
0, 4, 110, 18.94969367980957
0, 4, 111, 13.35085868835449
0, 4, 112, 8.842573165893555
0, 4, 113, 9.673490524291992
0, 4, 114, 7.85302734375
0, 4, 115, 10.02291297912598
0, 4, 116, 9.048836708068848
0, 4, 117, 8.930695533752441
0, 4, 118, 10.76469802856445
0, 4, 119, 9.961166381835938
0, 4, 120, 5.864060401916504
0, 4, 121, 5.408440113067627
0, 4, 122, 5.112969875335693
0, 4, 123, 7.087849140167236
0, 4, 124, 8.02485466003418
0, 4, 125, 10.88559150695801
0, 4, 126, 5.520698547363281
0, 4, 127, 4.08799934387207
0, 5, 0, 3.947872877120972
0, 5, 1, 3.758238077163696
0, 5, 2, 4.351424217224121
0, 5, 3, 3.403785943984985
0, 5, 4, 5.165456295013428
0, 5, 5, 7.864389419555664
0, 5, 6, 6.951189517974854
0, 5, 7, 4.859134674072266
0, 5, 8, 5.776541233062744
0, 5, 9, 6.758394241333008
0, 5, 10, 5.752654075622559
0, 5, 11, 7.196621417999268
0, 5, 12, 7.454192638397217
0, 5, 13, 8.374176025390625
0, 5, 14, 13.66281414031982
0, 5, 15, 16.18943023681641
0, 5, 16, 14.43382740020752
0, 5, 17, 27.80942344665527
0, 5, 18, 138.3212280273438
0, 5, 19, 289.8368835449219
0, 5, 20, 308.1241455078125
0, 5, 21, 320.6122741699219
0, 5, 22, 275.1371459960938
0, 5, 23, 311.6556701660156
0, 5, 24, 302.5520324707031
0, 5, 25, 287.6009521484375
0, 5, 26, 296.8502807617188
0, 5, 27, 323.2768859863281
0, 5, 28, 301.7599487304688
0, 5, 29, 296.2503356933594
0, 5, 30, 322.9512329101562
0, 5, 31, 286.3039245605469
0, 5, 32, 301.8441162109375
0, 5, 33, 304.330078125
0, 5, 34, 295.8126831054688
0, 5, 35, 310.0791320800781
0, 5, 36, 269.8902282714844
0, 5, 37, 282.2786254882812
0, 5, 38, 292.1094970703125
0, 5, 39, 309.6636962890625
0, 5, 40, 307.8985900878906
0, 5, 41, 273.01904296875
0, 5, 42, 305.4208374023438
0, 5, 43, 314.4356384277344
0, 5, 44, 294.2780151367188
0, 5, 45, 302.1286010742188
0, 5, 46, 263.9207458496094
0, 5, 47, 279.9674682617188
0, 5, 48, 295.8121032714844
0, 5, 49, 286.7387390136719
0, 5, 50, 295.1275329589844
0, 5, 51, 278.9311828613281
0, 5, 52, 268.4517517089844
0, 5, 53, 285.8204345703125
0, 5, 54, 292.7345275878906
0, 5, 55, 345.4127197265625
0, 5, 56, 307.80517578125
0, 5, 57, 311.7222595214844
0, 5, 58, 313.8535461425781
0, 5, 59, 303.2407836914062
0, 5, 60, 308.6581115722656
0, 5, 61, 281.0803833007812
0, 5, 62, 327.8609008789062
0, 5, 63, 291.6176147460938
0, 5, 64, 322.7330932617188
0, 5, 65, 305.8486633300781
0, 5, 66, 326.0810852050781
0, 5, 67, 310.6495971679688
0, 5, 68, 307.3983154296875
0, 5, 69, 311.4805603027344
0, 5, 70, 299.6669921875
0, 5, 71, 271.7472534179688
0, 5, 72, 310.7672424316406
0, 5, 73, 305.9123840332031
0, 5, 74, 296.4488525390625
0, 5, 75, 294.0879211425781
0, 5, 76, 285.4000244140625
0, 5, 77, 300.1187744140625
0, 5, 78, 313.3731994628906
0, 5, 79, 306.9739074707031
0, 5, 80, 295.8233947753906
0, 5, 81, 325.3420104980469
0, 5, 82, 324.0174865722656
0, 5, 83, 283.0110168457031
0, 5, 84, 304.5924987792969
0, 5, 85, 272.5866394042969
0, 5, 86, 324.0718383789062
0, 5, 87, 286.8280334472656
0, 5, 88, 315.565673828125
0, 5, 89, 304.2509460449219
0, 5, 90, 314.6072387695312
0, 5, 91, 314.3764038085938
0, 5, 92, 295.1474914550781
0, 5, 93, 320.9597473144531
0, 5, 94, 311.2940673828125
0, 5, 95, 295.7553405761719
0, 5, 96, 301.4700317382812
0, 5, 97, 294.7760925292969
0, 5, 98, 318.0244140625
0, 5, 99, 305.0419921875
0, 5, 100, 289.4505004882812
0, 5, 101, 307.6571044921875
0, 5, 102, 293.6382751464844
0, 5, 103, 314.1393737792969
0, 5, 104, 302.3699951171875
0, 5, 105, 291.9088439941406
0, 5, 106, 282.1063232421875
0, 5, 107, 294.8932189941406
0, 5, 108, 264.4918518066406
0, 5, 109, 157.4436492919922
0, 5, 110, 40.24524307250977
0, 5, 111, 22.61145401000977
0, 5, 112, 14.1757345199585
0, 5, 113, 17.0080738067627
0, 5, 114, 13.56207466125488
0, 5, 115, 6.947373390197754
0, 5, 116, 9.141627311706543
0, 5, 117, 6.96373987197876
0, 5, 118, 14.16529750823975
0, 5, 119, 4.576032638549805
0, 5, 120, 6.912143230438232
0, 5, 121, 5.098705768585205
0, 5, 122, 5.554452419281006
0, 5, 123, 4.09135913848877
0, 5, 124, 6.221180438995361
0, 5, 125, 3.35090184211731
0, 5, 126, 5.187523365020752
0, 5, 127, 2.254988670349121
0, 6, 0, 6.481002330780029
0, 6, 1, 4.201071739196777
0, 6, 2, 5.811116218566895
0, 6, 3, 8.815728187561035
0, 6, 4, 2.438429594039917
0, 6, 5, 5.176446914672852
0, 6, 6, 7.28749418258667
0, 6, 7, 6.157839775085449
0, 6, 8, 7.840593338012695
0, 6, 9, 6.444993019104004
0, 6, 10, 8.086539268493652
0, 6, 11, 9.242828369140625
0, 6, 12, 9.633423805236816
0, 6, 13, 12.04858303070068
0, 6, 14, 9.063559532165527
0, 6, 15, 19.07104682922363
0, 6, 16, 30.0372314453125
0, 6, 17, 56.22850036621094
0, 6, 18, 173.8785400390625
0, 6, 19, 276.2383422851562
0, 6, 20, 291.5837097167969
0, 6, 21, 312.78173828125
0, 6, 22, 322.0648803710938
0, 6, 23, 306.806884765625
0, 6, 24, 316.1349792480469
0, 6, 25, 318.3992919921875
0, 6, 26, 319.3053894042969
0, 6, 27, 330.171875
0, 6, 28, 298.4812316894531
0, 6, 29, 330.6755676269531
0, 6, 30, 281.3727416992188
0, 6, 31, 287.6682434082031
0, 6, 32, 341.0326232910156
0, 6, 33, 300.2995300292969
0, 6, 34, 342.9380493164062
0, 6, 35, 319.9594421386719
0, 6, 36, 273.6318054199219
0, 6, 37, 288.0342102050781
0, 6, 38, 311.4428100585938
0, 6, 39, 298.806884765625
0, 6, 40, 285.9198303222656
0, 6, 41, 296.0997619628906
0, 6, 42, 304.7698669433594
0, 6, 43, 289.6771850585938
0, 6, 44, 279.5838317871094
0, 6, 45, 319.275390625
0, 6, 46, 303.9467468261719
0, 6, 47, 334.3418273925781
0, 6, 48, 293.7083740234375
0, 6, 49, 311.4562072753906
0, 6, 50, 327.5096740722656
0, 6, 51, 311.4414978027344
0, 6, 52, 322.3439331054688
0, 6, 53, 328.4541931152344
0, 6, 54, 302.8982849121094
0, 6, 55, 304.7626342773438
0, 6, 56, 294.0362548828125
0, 6, 57, 313.1371459960938
0, 6, 58, 261.3113403320312
0, 6, 59, 303.9867248535156
0, 6, 60, 316.8047180175781
0, 6, 61, 268.9701538085938
0, 6, 62, 338.7061462402344
0, 6, 63, 321.7652282714844
0, 6, 64, 290.5682373046875
0, 6, 65, 286.9380493164062
0, 6, 66, 303.5303039550781
0, 6, 67, 308.9999084472656
0, 6, 68, 293.9826049804688
0, 6, 69, 279.4278869628906
0, 6, 70, 274.7732543945312
0, 6, 71, 291.0353088378906
0, 6, 72, 310.9166870117188
0, 6, 73, 295.3307189941406
0, 6, 74, 331.5455932617188
0, 6, 75, 343.1755676269531
0, 6, 76, 296.7881469726562
0, 6, 77, 285.9369201660156
0, 6, 78, 280.0011901855469
0, 6, 79, 293.9292297363281
0, 6, 80, 298.3215637207031
0, 6, 81, 313.4632568359375
0, 6, 82, 320.2367248535156
0, 6, 83, 319.5177917480469
0, 6, 84, 294.677978515625
0, 6, 85, 301.0638732910156
0, 6, 86, 329.6784057617188
0, 6, 87, 293.7876892089844
0, 6, 88, 306.7340698242188
0, 6, 89, 308.2037963867188
0, 6, 90, 299.9317932128906
0, 6, 91, 312.8134460449219
0, 6, 92, 283.1384582519531
0, 6, 93, 296.2640075683594
0, 6, 94, 273.7663269042969
0, 6, 95, 298.6346435546875
0, 6, 96, 344.9050598144531
0, 6, 97, 307.8457641601562
0, 6, 98, 302.318603515625
0, 6, 99, 270.9312744140625
0, 6, 100, 308.629638671875
0, 6, 101, 292.7300720214844
0, 6, 102, 307.5577087402344
0, 6, 103, 307.8185424804688
0, 6, 104, 292.3746032714844
0, 6, 105, 303.9436645507812
0, 6, 106, 306.4664611816406
0, 6, 107, 305.3098754882812
0, 6, 108, 266.9438781738281
0, 6, 109, 186.8678894042969
0, 6, 110, 53.34099197387695
0, 6, 111, 21.73655128479004
0, 6, 112, 13.58034610748291
0, 6, 113, 10.36314582824707
0, 6, 114, 12.43486881256104
0, 6, 115, 11.51363945007324
0, 6, 116, 8.429190635681152
0, 6, 117, 6.433376312255859
0, 6, 118, 9.986716270446777
0, 6, 119, 7.264513969421387
0, 6, 120, 5.122637748718262
0, 6, 121, 6.636728286743164
0, 6, 122, 9.406674385070801
0, 6, 123, 6.262875556945801
0, 6, 124, 7.932389259338379
0, 6, 125, 7.432990074157715
0, 6, 126, 5.127636909484863
0, 6, 127, 7.474623203277588
0, 7, 0, 4.447149276733398
0, 7, 1, 5.606635570526123
0, 7, 2, 4.853084087371826
0, 7, 3, 4.170047760009766
0, 7, 4, 6.434054851531982
0, 7, 5, 9.428348541259766
0, 7, 6, 6.35347318649292
0, 7, 7, 5.349002361297607
0, 7, 8, 4.763683795928955
0, 7, 9, 6.07903528213501
0, 7, 10, 9.563348770141602
0, 7, 11, 11.1277494430542
0, 7, 12, 8.87762451171875
0, 7, 13, 11.79904937744141
0, 7, 14, 11.29900646209717
0, 7, 15, 16.11847114562988
0, 7, 16, 26.46897315979004
0, 7, 17, 98.30298614501953
0, 7, 18, 219.1249389648438
0, 7, 19, 288.6251525878906
0, 7, 20, 295.1315612792969
0, 7, 21, 275.8373718261719
0, 7, 22, 299.7860107421875
0, 7, 23, 288.6240234375
0, 7, 24, 314.7270812988281
0, 7, 25, 325.1383972167969
0, 7, 26, 278.1647033691406
0, 7, 27, 298.7800903320312
0, 7, 28, 325.8057556152344
0, 7, 29, 318.3086853027344
0, 7, 30, 302.1891479492188
0, 7, 31, 279.1651916503906
0, 7, 32, 305.17626953125
0, 7, 33, 261.9610595703125
0, 7, 34, 298.1323547363281
0, 7, 35, 320.6906127929688
0, 7, 36, 333.0175476074219
0, 7, 37, 322.27783203125
0, 7, 38, 295.54736328125
0, 7, 39, 303.9486694335938
0, 7, 40, 287.5669860839844
0, 7, 41, 272.04736328125
0, 7, 42, 300.5113220214844
0, 7, 43, 276.0273742675781
0, 7, 44, 305.5037536621094
0, 7, 45, 294.1498718261719
0, 7, 46, 281.8315734863281
0, 7, 47, 328.24462890625
0, 7, 48, 284.6998291015625
0, 7, 49, 301.3631591796875
0, 7, 50, 320.8969116210938
0, 7, 51, 298.640380859375
0, 7, 52, 326.3963928222656
0, 7, 53, 310.4744262695312
0, 7, 54, 326.3417053222656
0, 7, 55, 306.4449768066406
0, 7, 56, 278.6339416503906
0, 7, 57, 284.4450073242188
0, 7, 58, 296.1445922851562
0, 7, 59, 294.4788208007812
0, 7, 60, 324.5353698730469
0, 7, 61, 278.1658325195312
0, 7, 62, 296.2503967285156
0, 7, 63, 292.4297180175781
0, 7, 64, 305.9747924804688
0, 7, 65, 330.489501953125
0, 7, 66, 317.122314453125
0, 7, 67, 302.3395690917969
0, 7, 68, 280.0951843261719
0, 7, 69, 293.6930541992188
0, 7, 70, 301.1884460449219
0, 7, 71, 310.7078857421875
0, 7, 72, 287.4307861328125
0, 7, 73, 296.9155883789062
0, 7, 74, 343.9842834472656
0, 7, 75, 318.6315307617188
0, 7, 76, 321.003662109375
0, 7, 77, 279.4156799316406
0, 7, 78, 299.8728332519531
0, 7, 79, 296.8531494140625
0, 7, 80, 309.83740234375
0, 7, 81, 319.0798034667969
0, 7, 82, 328.9818725585938
0, 7, 83, 316.2668151855469
0, 7, 84, 309.5520935058594
0, 7, 85, 272.088623046875
0, 7, 86, 312.0233764648438
0, 7, 87, 309.0367736816406
0, 7, 88, 305.6893005371094
0, 7, 89, 294.9524841308594
0, 7, 90, 307.3862609863281
0, 7, 91, 313.9624633789062
0, 7, 92, 286.9749450683594
0, 7, 93, 306.8177490234375
0, 7, 94, 273.9125061035156
0, 7, 95, 297.2056274414062
0, 7, 96, 331.2811279296875
0, 7, 97, 293.246337890625
0, 7, 98, 290.1363525390625
0, 7, 99, 310.7327880859375
0, 7, 100, 283.7272644042969
0, 7, 101, 275.600341796875
0, 7, 102, 290.2864685058594
0, 7, 103, 294.8298645019531
0, 7, 104, 275.530029296875
0, 7, 105, 308.2377014160156
0, 7, 106, 316.8914794921875
0, 7, 107, 297.1686706542969
0, 7, 108, 273.6323547363281
0, 7, 109, 237.18701171875
0, 7, 110, 96.11201477050781
0, 7, 111, 23.73289680480957
0, 7, 112, 12.62685680389404
0, 7, 113, 14.34168434143066
0, 7, 114, 12.30936145782471
0, 7, 115, 12.07799243927002
0, 7, 116, 6.500896453857422
0, 7, 117, 4.607035636901855
0, 7, 118, 8.384305953979492
0, 7, 119, 4.969239711761475
0, 7, 120, 3.681053161621094
0, 7, 121, 6.41587495803833
0, 7, 122, 5.960858345031738
0, 7, 123, 4.493087768554688
0, 7, 124, 4.57460880279541
0, 7, 125, 7.762094974517822
0, 7, 126, 6.390704154968262
0, 7, 127, 0.9579309821128845
0, 8, 0, 5.109810829162598
0, 8, 1, 5.700308799743652
0, 8, 2, 5.379341125488281
0, 8, 3, 5.25861644744873
0, 8, 4, 4.609123706817627
0, 8, 5, 3.485031127929688
0, 8, 6, 8.232538223266602
0, 8, 7, 5.67258882522583
0, 8, 8, 9.63913631439209
0, 8, 9, 4.667951107025146
0, 8, 10, 7.791588306427002
0, 8, 11, 12.46032619476318
0, 8, 12, 12.55190849304199
0, 8, 13, 15.55845355987549
0, 8, 14, 13.22515392303467
0, 8, 15, 16.92459297180176
0, 8, 16, 32.49638748168945
0, 8, 17, 129.4397277832031
0, 8, 18, 242.8103332519531
0, 8, 19, 296.3064880371094
0, 8, 20, 284.4347839355469
0, 8, 21, 307.7670288085938
0, 8, 22, 298.4303894042969
0, 8, 23, 274.4794311523438
0, 8, 24, 269.2150268554688
0, 8, 25, 276.8890380859375
0, 8, 26, 305.4988098144531
0, 8, 27, 308.3781127929688
0, 8, 28, 303.2398071289062
0, 8, 29, 318.62353515625
0, 8, 30, 317.6443176269531
0, 8, 31, 303.9448547363281
0, 8, 32, 278.9391784667969
0, 8, 33, 296.6726684570312
0, 8, 34, 291.2257385253906
0, 8, 35, 277.9338073730469
0, 8, 36, 313.7398376464844
0, 8, 37, 340.7581787109375
0, 8, 38, 331.3745727539062
0, 8, 39, 282.1803894042969
0, 8, 40, 304.0697631835938
