# TOPAS Version: 3.1.p3
# Parameter File: batch_inserts_292.txt
# Results for scorer Readout_Adipose
# Scored in component: MyBox
# X in 1 bin  of 0.75 cm
# Y in 512 bins of 0.0783984 cm
# Z in 128 bins of 0.078125 cm
# EnergyDeposit ( MeV ) : Sum   
0, 0, 0, 3.305036067962646
0, 0, 1, 1.662354826927185
0, 0, 2, 3.007359743118286
0, 0, 3, 2.86513876914978
0, 0, 4, 3.464409589767456
0, 0, 5, 2.825074672698975
0, 0, 6, 7.381347179412842
0, 0, 7, 7.807270526885986
0, 0, 8, 2.748882055282593
0, 0, 9, 5.932645797729492
0, 0, 10, 7.571633815765381
0, 0, 11, 4.455025672912598
0, 0, 12, 4.880046844482422
0, 0, 13, 7.187524318695068
0, 0, 14, 6.249410152435303
0, 0, 15, 8.611745834350586
0, 0, 16, 9.567316055297852
0, 0, 17, 8.74995231628418
0, 0, 18, 12.92282676696777
0, 0, 19, 43.19532012939453
0, 0, 20, 141.1477661132812
0, 0, 21, 224.7067718505859
0, 0, 22, 248.3396759033203
0, 0, 23, 256.939453125
0, 0, 24, 250.1983184814453
0, 0, 25, 259.1847534179688
0, 0, 26, 233.9000091552734
0, 0, 27, 236.8832550048828
0, 0, 28, 272.9569091796875
0, 0, 29, 252.6473693847656
0, 0, 30, 231.5357818603516
0, 0, 31, 245.8830413818359
0, 0, 32, 263.02001953125
0, 0, 33, 261.9488830566406
0, 0, 34, 287.7424011230469
0, 0, 35, 267.3679809570312
0, 0, 36, 246.7849426269531
0, 0, 37, 253.9880218505859
0, 0, 38, 271.4256286621094
0, 0, 39, 229.8378143310547
0, 0, 40, 241.2915344238281
0, 0, 41, 266.8256225585938
0, 0, 42, 229.5806884765625
0, 0, 43, 260.4724731445312
0, 0, 44, 251.1805725097656
0, 0, 45, 256.3890075683594
0, 0, 46, 245.5700988769531
0, 0, 47, 252.9144439697266
0, 0, 48, 267.8574829101562
0, 0, 49, 272.7876281738281
0, 0, 50, 249.9526977539062
0, 0, 51, 253.0448303222656
0, 0, 52, 272.1390075683594
0, 0, 53, 292.4384765625
0, 0, 54, 241.5974273681641
0, 0, 55, 239.2009582519531
0, 0, 56, 277.8239440917969
0, 0, 57, 262.4727783203125
0, 0, 58, 245.9002532958984
0, 0, 59, 270.2099914550781
0, 0, 60, 234.7578735351562
0, 0, 61, 245.6504516601562
0, 0, 62, 260.30419921875
0, 0, 63, 266.2247924804688
0, 0, 64, 255.1701507568359
0, 0, 65, 263.1043701171875
0, 0, 66, 277.7845153808594
0, 0, 67, 247.9190979003906
0, 0, 68, 257.8187255859375
0, 0, 69, 260.2604370117188
0, 0, 70, 274.6515808105469
0, 0, 71, 237.1028747558594
0, 0, 72, 250.5030517578125
0, 0, 73, 258.2853698730469
0, 0, 74, 251.0970764160156
0, 0, 75, 240.3880462646484
0, 0, 76, 228.2942047119141
0, 0, 77, 261.5032958984375
0, 0, 78, 256.074462890625
0, 0, 79, 278.9117736816406
0, 0, 80, 216.5386352539062
0, 0, 81, 266.8170776367188
0, 0, 82, 256.35791015625
0, 0, 83, 245.8954925537109
0, 0, 84, 271.2657165527344
0, 0, 85, 232.1058502197266
0, 0, 86, 253.0368194580078
0, 0, 87, 250.3595886230469
0, 0, 88, 260.37109375
0, 0, 89, 282.7461242675781
0, 0, 90, 242.8083648681641
0, 0, 91, 280.71728515625
0, 0, 92, 254.6253662109375
0, 0, 93, 250.139892578125
0, 0, 94, 248.8638763427734
0, 0, 95, 247.3557739257812
0, 0, 96, 275.0963134765625
0, 0, 97, 272.3753051757812
0, 0, 98, 274.651123046875
0, 0, 99, 257.5799560546875
0, 0, 100, 260.6759643554688
0, 0, 101, 227.4348602294922
0, 0, 102, 233.0546112060547
0, 0, 103, 269.9531860351562
0, 0, 104, 253.0985260009766
0, 0, 105, 251.3917846679688
0, 0, 106, 245.5688934326172
0, 0, 107, 152.1759490966797
0, 0, 108, 37.93225479125977
0, 0, 109, 11.94192695617676
0, 0, 110, 12.97614669799805
0, 0, 111, 8.601146697998047
0, 0, 112, 7.638297080993652
0, 0, 113, 5.370608806610107
0, 0, 114, 6.12798023223877
0, 0, 115, 5.251663684844971
0, 0, 116, 4.766191005706787
0, 0, 117, 5.479506015777588
0, 0, 118, 7.307295322418213
0, 0, 119, 3.453246593475342
0, 0, 120, 4.852818965911865
0, 0, 121, 3.604268312454224
0, 0, 122, 4.398382186889648
0, 0, 123, 5.02831506729126
0, 0, 124, 4.690573215484619
0, 0, 125, 2.41511082649231
0, 0, 126, 5.080344200134277
0, 0, 127, 2.944910526275635
0, 1, 0, 7.960397243499756
0, 1, 1, 3.920233011245728
0, 1, 2, 4.717582225799561
0, 1, 3, 2.583435535430908
0, 1, 4, 2.529016971588135
0, 1, 5, 3.718295574188232
0, 1, 6, 3.832094430923462
0, 1, 7, 4.993663787841797
0, 1, 8, 10.13260078430176
0, 1, 9, 4.808119297027588
0, 1, 10, 7.201668262481689
0, 1, 11, 12.82123756408691
0, 1, 12, 7.86625337600708
0, 1, 13, 9.423799514770508
0, 1, 14, 8.997151374816895
0, 1, 15, 8.111146926879883
0, 1, 16, 12.08272457122803
0, 1, 17, 10.61483955383301
0, 1, 18, 19.90687942504883
0, 1, 19, 65.54283905029297
0, 1, 20, 200.8766021728516
0, 1, 21, 253.5122222900391
0, 1, 22, 294.8595886230469
0, 1, 23, 283.1978454589844
0, 1, 24, 275.6236267089844
0, 1, 25, 290.4044799804688
0, 1, 26, 268.6887512207031
0, 1, 27, 306.1883239746094
0, 1, 28, 300.8221740722656
0, 1, 29, 296.2843322753906
0, 1, 30, 285.8043212890625
0, 1, 31, 290.4241027832031
0, 1, 32, 290.5892944335938
0, 1, 33, 295.5511474609375
0, 1, 34, 292.7535705566406
0, 1, 35, 278.8993835449219
0, 1, 36, 306.227294921875
0, 1, 37, 293.6504821777344
0, 1, 38, 278.9054870605469
0, 1, 39, 295.8751831054688
0, 1, 40, 266.3662109375
0, 1, 41, 286.2184753417969
0, 1, 42, 290.048828125
0, 1, 43, 333.7470703125
0, 1, 44, 279.1569213867188
0, 1, 45, 292.7908325195312
0, 1, 46, 261.4055786132812
0, 1, 47, 313.4303283691406
0, 1, 48, 285.8762512207031
0, 1, 49, 302.5114135742188
0, 1, 50, 262.7778625488281
0, 1, 51, 271.8030090332031
0, 1, 52, 296.5206604003906
0, 1, 53, 305.3620300292969
0, 1, 54, 276.0119018554688
0, 1, 55, 293.6477355957031
0, 1, 56, 281.7161865234375
0, 1, 57, 299.5783996582031
0, 1, 58, 311.8977355957031
0, 1, 59, 291.7228393554688
0, 1, 60, 298.2811889648438
0, 1, 61, 274.8348999023438
0, 1, 62, 307.6376953125
0, 1, 63, 287.9939575195312
0, 1, 64, 288.3308410644531
0, 1, 65, 295.1250915527344
0, 1, 66, 293.5047912597656
0, 1, 67, 291.2445373535156
0, 1, 68, 278.2859802246094
0, 1, 69, 282.1083374023438
0, 1, 70, 270.6225280761719
0, 1, 71, 272.9755554199219
0, 1, 72, 286.2167053222656
0, 1, 73, 305.8432006835938
0, 1, 74, 303.4059448242188
0, 1, 75, 292.99560546875
0, 1, 76, 284.071533203125
0, 1, 77, 289.2215270996094
0, 1, 78, 296.3460693359375
0, 1, 79, 301.2444458007812
0, 1, 80, 296.2070007324219
0, 1, 81, 301.8989562988281
0, 1, 82, 283.7046203613281
0, 1, 83, 331.4413452148438
0, 1, 84, 309.2069396972656
0, 1, 85, 253.5482025146484
0, 1, 86, 295.97900390625
0, 1, 87, 292.2085571289062
0, 1, 88, 297.1299133300781
0, 1, 89, 290.002685546875
0, 1, 90, 272.6904602050781
0, 1, 91, 317.9234008789062
0, 1, 92, 292.2864074707031
0, 1, 93, 287.4046630859375
0, 1, 94, 303.3895874023438
0, 1, 95, 283.2668151855469
0, 1, 96, 282.6702575683594
0, 1, 97, 300.1161193847656
0, 1, 98, 277.3772583007812
0, 1, 99, 265.7350158691406
0, 1, 100, 277.3560791015625
0, 1, 101, 282.8064270019531
0, 1, 102, 278.1942138671875
0, 1, 103, 283.5534362792969
0, 1, 104, 307.1179809570312
0, 1, 105, 297.0090637207031
0, 1, 106, 260.568603515625
0, 1, 107, 192.4490356445312
0, 1, 108, 81.47219085693359
0, 1, 109, 22.92791175842285
0, 1, 110, 12.59591770172119
0, 1, 111, 8.43798828125
0, 1, 112, 12.59267520904541
0, 1, 113, 5.710352897644043
0, 1, 114, 5.595365047454834
0, 1, 115, 5.793172359466553
0, 1, 116, 12.1623363494873
0, 1, 117, 7.645923137664795
0, 1, 118, 5.021483421325684
0, 1, 119, 8.17849063873291
0, 1, 120, 3.807564973831177
0, 1, 121, 3.786061525344849
0, 1, 122, 4.173801898956299
0, 1, 123, 3.801150321960449
0, 1, 124, 9.79120922088623
0, 1, 125, 3.344236850738525
0, 1, 126, 2.907607316970825
0, 1, 127, 3.017888069152832
0, 2, 0, 4.678762435913086
0, 2, 1, 3.575620651245117
0, 2, 2, 5.383410453796387
0, 2, 3, 4.70391321182251
0, 2, 4, 2.916177988052368
0, 2, 5, 1.63791835308075
0, 2, 6, 3.09801197052002
0, 2, 7, 3.44032621383667
0, 2, 8, 3.308207035064697
0, 2, 9, 6.511170387268066
0, 2, 10, 8.159234046936035
0, 2, 11, 6.482230186462402
0, 2, 12, 6.178329944610596
0, 2, 13, 9.543156623840332
0, 2, 14, 10.41293525695801
0, 2, 15, 8.56723690032959
0, 2, 16, 8.533468246459961
0, 2, 17, 15.20763969421387
0, 2, 18, 30.6847972869873
0, 2, 19, 117.5462875366211
0, 2, 20, 244.0681457519531
0, 2, 21, 271.4508972167969
0, 2, 22, 314.2338562011719
0, 2, 23, 301.8468933105469
0, 2, 24, 288.0523681640625
0, 2, 25, 303.8646240234375
0, 2, 26, 294.3811950683594
0, 2, 27, 275.5574645996094
0, 2, 28, 272.7826538085938
0, 2, 29, 274.6165161132812
0, 2, 30, 292.1578979492188
0, 2, 31, 277.0903625488281
0, 2, 32, 294.0859680175781
0, 2, 33, 282.3165588378906
0, 2, 34, 330.6578674316406
0, 2, 35, 288.8117065429688
0, 2, 36, 303.9569091796875
0, 2, 37, 316.8564758300781
0, 2, 38, 311.31787109375
0, 2, 39, 265.5802612304688
0, 2, 40, 305.8328857421875
0, 2, 41, 291.6279907226562
0, 2, 42, 305.2322998046875
0, 2, 43, 311.7039184570312
0, 2, 44, 310.6404418945312
0, 2, 45, 325.0107421875
0, 2, 46, 289.2153930664062
0, 2, 47, 304.5904235839844
0, 2, 48, 282.8642883300781
0, 2, 49, 279.4352416992188
0, 2, 50, 295.517578125
0, 2, 51, 285.2413330078125
0, 2, 52, 273.1837768554688
0, 2, 53, 286.5961303710938
0, 2, 54, 279.1682739257812
0, 2, 55, 274.41259765625
0, 2, 56, 304.1772766113281
0, 2, 57, 293.5125427246094
0, 2, 58, 303.5576171875
0, 2, 59, 289.5726623535156
0, 2, 60, 319.6163024902344
0, 2, 61, 301.9627075195312
0, 2, 62, 313.4336242675781
0, 2, 63, 300.9493103027344
0, 2, 64, 296.3105163574219
0, 2, 65, 316.618408203125
0, 2, 66, 279.3668823242188
0, 2, 67, 289.7677001953125
0, 2, 68, 295.4702758789062
0, 2, 69, 311.8150634765625
0, 2, 70, 336.4962158203125
0, 2, 71, 283.3584594726562
0, 2, 72, 302.8127136230469
0, 2, 73, 313.2069396972656
0, 2, 74, 285.9857177734375
0, 2, 75, 303.3161926269531
0, 2, 76, 286.1868286132812
0, 2, 77, 299.51025390625
0, 2, 78, 314.4092407226562
0, 2, 79, 309.5101928710938
0, 2, 80, 297.2136840820312
0, 2, 81, 281.4208984375
0, 2, 82, 320.02490234375
0, 2, 83, 311.3460083007812
0, 2, 84, 287.4169311523438
0, 2, 85, 279.9288330078125
0, 2, 86, 326.132568359375
0, 2, 87, 285.7616577148438
0, 2, 88, 280.4986877441406
0, 2, 89, 294.0573120117188
0, 2, 90, 294.9260864257812
0, 2, 91, 276.3906555175781
0, 2, 92, 306.8918151855469
0, 2, 93, 318.1160278320312
0, 2, 94, 291.024169921875
0, 2, 95, 314.0592041015625
0, 2, 96, 315.3494262695312
0, 2, 97, 294.4855041503906
0, 2, 98, 294.6846008300781
0, 2, 99, 274.7210998535156
0, 2, 100, 305.0679016113281
0, 2, 101, 302.0373840332031
0, 2, 102, 297.3357238769531
0, 2, 103, 293.0670471191406
0, 2, 104, 292.5382385253906
0, 2, 105, 273.9208374023438
0, 2, 106, 297.4385986328125
0, 2, 107, 269.238037109375
0, 2, 108, 115.3617095947266
0, 2, 109, 32.4450798034668
0, 2, 110, 10.46491622924805
0, 2, 111, 11.06233406066895
0, 2, 112, 6.568300247192383
0, 2, 113, 11.49488067626953
0, 2, 114, 9.138245582580566
0, 2, 115, 8.969283103942871
0, 2, 116, 11.45372295379639
0, 2, 117, 9.824143409729004
0, 2, 118, 3.070644617080688
0, 2, 119, 4.787642478942871
0, 2, 120, 4.715942859649658
0, 2, 121, 1.777129054069519
0, 2, 122, 3.480525255203247
0, 2, 123, 4.052059173583984
0, 2, 124, 2.010724782943726
0, 2, 125, 7.201653003692627
0, 2, 126, 4.127163410186768
0, 2, 127, 4.590999126434326
0, 3, 0, 2.601288080215454
0, 3, 1, 3.098796129226685
0, 3, 2, 3.344080448150635
0, 3, 3, 2.829848289489746
0, 3, 4, 3.477105379104614
0, 3, 5, 7.190492630004883
0, 3, 6, 6.823769092559814
0, 3, 7, 4.531346797943115
0, 3, 8, 5.233154296875
0, 3, 9, 6.439805030822754
0, 3, 10, 7.234138965606689
0, 3, 11, 3.880127191543579
0, 3, 12, 6.101495265960693
0, 3, 13, 14.3070182800293
0, 3, 14, 11.97692108154297
0, 3, 15, 17.453125
0, 3, 16, 11.40490627288818
0, 3, 17, 19.46263313293457
0, 3, 18, 53.72287750244141
0, 3, 19, 176.7601776123047
0, 3, 20, 272.0872497558594
0, 3, 21, 271.1262512207031
0, 3, 22, 281.3659057617188
0, 3, 23, 288.1335144042969
0, 3, 24, 288.0590515136719
0, 3, 25, 272.8772277832031
0, 3, 26, 306.4233703613281
0, 3, 27, 291.1753234863281
0, 3, 28, 282.0878601074219
0, 3, 29, 336.8713073730469
0, 3, 30, 316.6673278808594
0, 3, 31, 285.6505126953125
0, 3, 32, 306.1582336425781
0, 3, 33, 315.5535583496094
0, 3, 34, 324.3722229003906
0, 3, 35, 305.66455078125
0, 3, 36, 269.6397094726562
0, 3, 37, 318.6496276855469
0, 3, 38, 304.1847229003906
0, 3, 39, 286.5768737792969
0, 3, 40, 265.3502502441406
0, 3, 41, 299.7383728027344
0, 3, 42, 283.3260803222656
0, 3, 43, 307.8694458007812
0, 3, 44, 312.876708984375
0, 3, 45, 289.1568908691406
0, 3, 46, 327.7700805664062
0, 3, 47, 299.4429931640625
0, 3, 48, 303.8287353515625
0, 3, 49, 275.1654052734375
0, 3, 50, 291.6874694824219
0, 3, 51, 276.8824462890625
0, 3, 52, 316.6578674316406
0, 3, 53, 291.2025451660156
0, 3, 54, 286.084716796875
0, 3, 55, 284.0844116210938
0, 3, 56, 299.1110534667969
0, 3, 57, 288.33447265625
0, 3, 58, 307.1070251464844
0, 3, 59, 296.0321655273438
0, 3, 60, 301.3361511230469
0, 3, 61, 264.2543334960938
0, 3, 62, 284.5567626953125
0, 3, 63, 306.4416809082031
0, 3, 64, 316.114013671875
0, 3, 65, 306.0116882324219
0, 3, 66, 314.4666137695312
0, 3, 67, 317.8277282714844
0, 3, 68, 278.4932556152344
0, 3, 69, 284.0827026367188
0, 3, 70, 286.7423095703125
0, 3, 71, 299.4539489746094
0, 3, 72, 269.5324096679688
0, 3, 73, 311.2988586425781
0, 3, 74, 293.5933837890625
0, 3, 75, 291.8761596679688
0, 3, 76, 305.6763305664062
0, 3, 77, 316.3827819824219
0, 3, 78, 303.79541015625
0, 3, 79, 283.31396484375
0, 3, 80, 291.0381469726562
0, 3, 81, 311.3722839355469
0, 3, 82, 316.8049011230469
0, 3, 83, 301.878173828125
0, 3, 84, 311.9199523925781
0, 3, 85, 295.9350280761719
0, 3, 86, 302.2225952148438
0, 3, 87, 299.9828796386719
0, 3, 88, 300.2994995117188
0, 3, 89, 297.9564819335938
0, 3, 90, 277.9576110839844
0, 3, 91, 283.829345703125
0, 3, 92, 304.3624572753906
0, 3, 93, 312.0078735351562
0, 3, 94, 299.1551513671875
0, 3, 95, 335.7082824707031
0, 3, 96, 290.8059692382812
0, 3, 97, 282.5580444335938
0, 3, 98, 277.2369689941406
0, 3, 99, 263.14453125
0, 3, 100, 284.503173828125
0, 3, 101, 296.5928344726562
0, 3, 102, 274.1441650390625
0, 3, 103, 319.2518615722656
0, 3, 104, 308.89111328125
0, 3, 105, 288.9881896972656
0, 3, 106, 303.761962890625
0, 3, 107, 281.6867980957031
0, 3, 108, 170.1520538330078
0, 3, 109, 57.94404602050781
0, 3, 110, 19.47405433654785
0, 3, 111, 13.31193828582764
0, 3, 112, 11.3247537612915
0, 3, 113, 8.185091972351074
0, 3, 114, 11.08340644836426
0, 3, 115, 6.402288913726807
0, 3, 116, 6.665681838989258
0, 3, 117, 6.142015933990479
0, 3, 118, 7.566885471343994
0, 3, 119, 4.189218044281006
0, 3, 120, 6.385400295257568
0, 3, 121, 3.062915802001953
0, 3, 122, 6.150399208068848
0, 3, 123, 6.300195217132568
0, 3, 124, 3.419881343841553
0, 3, 125, 7.106088161468506
0, 3, 126, 4.534111022949219
0, 3, 127, 2.330009698867798
0, 4, 0, 4.711328983306885
0, 4, 1, 4.513566493988037
0, 4, 2, 3.011117935180664
0, 4, 3, 3.208298683166504
0, 4, 4, 6.079900741577148
0, 4, 5, 8.941514015197754
0, 4, 6, 8.795358657836914
0, 4, 7, 4.384855270385742
0, 4, 8, 5.146602630615234
0, 4, 9, 5.421854496002197
0, 4, 10, 7.341112613677979
0, 4, 11, 5.735499858856201
0, 4, 12, 6.563429355621338
0, 4, 13, 10.73779010772705
0, 4, 14, 10.99622440338135
0, 4, 15, 12.268723487854
0, 4, 16, 16.25096702575684
0, 4, 17, 18.96990394592285
0, 4, 18, 93.92948150634766
0, 4, 19, 221.7245788574219
0, 4, 20, 285.1983337402344
0, 4, 21, 275.0303344726562
0, 4, 22, 305.5747680664062
0, 4, 23, 267.147705078125
0, 4, 24, 289.0762939453125
0, 4, 25, 271.3728942871094
0, 4, 26, 295.8748779296875
0, 4, 27, 282.294921875
0, 4, 28, 308.5494384765625
0, 4, 29, 322.6041259765625
0, 4, 30, 310.2598876953125
0, 4, 31, 303.8287963867188
0, 4, 32, 280.3082885742188
0, 4, 33, 296.3233642578125
0, 4, 34, 295.3923034667969
0, 4, 35, 312.9900512695312
0, 4, 36, 296.1614074707031
0, 4, 37, 288.7414855957031
0, 4, 38, 296.389892578125
0, 4, 39, 294.8766479492188
0, 4, 40, 301.4563293457031
0, 4, 41, 312.644775390625
0, 4, 42, 329.583740234375
0, 4, 43, 295.2567443847656
0, 4, 44, 321.8144836425781
0, 4, 45, 326.8963317871094
0, 4, 46, 308.2424926757812
0, 4, 47, 292.2744750976562
0, 4, 48, 300.8979187011719
0, 4, 49, 278.9799499511719
0, 4, 50, 296.7347717285156
0, 4, 51, 316.20849609375
0, 4, 52, 329.4733276367188
0, 4, 53, 306.16845703125
0, 4, 54, 287.2095336914062
0, 4, 55, 315.5331115722656
0, 4, 56, 285.8664245605469
0, 4, 57, 309.6275024414062
0, 4, 58, 294.410400390625
0, 4, 59, 309.2925415039062
0, 4, 60, 301.9706726074219
0, 4, 61, 315.8825378417969
0, 4, 62, 307.9135437011719
0, 4, 63, 299.8661804199219
0, 4, 64, 330.5710144042969
0, 4, 65, 314.3502502441406
0, 4, 66, 295.3548889160156
0, 4, 67, 285.1473083496094
0, 4, 68, 311.6432189941406
0, 4, 69, 276.0697021484375
0, 4, 70, 299.96484375
0, 4, 71, 322.1730346679688
0, 4, 72, 334.6938781738281
0, 4, 73, 298.9551696777344
0, 4, 74, 294.0632019042969
0, 4, 75, 290.6568908691406
0, 4, 76, 275.2571716308594
0, 4, 77, 279.2575073242188
0, 4, 78, 308.7750549316406
0, 4, 79, 318.8438415527344
0, 4, 80, 316.4446716308594
0, 4, 81, 314.6849670410156
0, 4, 82, 298.6775512695312
0, 4, 83, 299.5122985839844
0, 4, 84, 294.8375549316406
0, 4, 85, 296.957763671875
0, 4, 86, 298.6822509765625
0, 4, 87, 285.4934997558594
0, 4, 88, 307.9082641601562
0, 4, 89, 295.7391662597656
0, 4, 90, 333.5252685546875
0, 4, 91, 302.497802734375
0, 4, 92, 288.29443359375
0, 4, 93, 296.9152221679688
0, 4, 94, 291.8018188476562
0, 4, 95, 289.5630798339844
0, 4, 96, 324.85546875
0, 4, 97, 274.9689636230469
0, 4, 98, 326.2356872558594
0, 4, 99, 313.9054260253906
0, 4, 100, 300.6005249023438
0, 4, 101, 258.3624572753906
0, 4, 102, 296.2330932617188
0, 4, 103, 317.652587890625
0, 4, 104, 283.1011962890625
0, 4, 105, 310.1538391113281
0, 4, 106, 286.2541198730469
0, 4, 107, 296.0281372070312
0, 4, 108, 225.7037658691406
0, 4, 109, 79.98890686035156
0, 4, 110, 20.04202651977539
0, 4, 111, 14.01590061187744
0, 4, 112, 11.19426822662354
0, 4, 113, 10.98328018188477
0, 4, 114, 9.33266544342041
0, 4, 115, 10.20383453369141
0, 4, 116, 9.198213577270508
0, 4, 117, 8.216853141784668
0, 4, 118, 12.82585048675537
0, 4, 119, 10.33204936981201
0, 4, 120, 5.182043552398682
0, 4, 121, 5.263549327850342
0, 4, 122, 4.992645263671875
0, 4, 123, 6.526014804840088
0, 4, 124, 4.704255104064941
0, 4, 125, 9.037869453430176
0, 4, 126, 4.606492519378662
0, 4, 127, 2.555378437042236
0, 5, 0, 4.734842777252197
0, 5, 1, 2.598116874694824
0, 5, 2, 4.8042893409729
0, 5, 3, 4.90419340133667
0, 5, 4, 5.185813903808594
0, 5, 5, 6.668334484100342
0, 5, 6, 6.052707672119141
0, 5, 7, 4.98213005065918
0, 5, 8, 5.251755714416504
0, 5, 9, 4.984075546264648
0, 5, 10, 8.565411567687988
0, 5, 11, 7.087573051452637
0, 5, 12, 9.237308502197266
0, 5, 13, 5.622129440307617
0, 5, 14, 12.42775058746338
0, 5, 15, 16.59195327758789
0, 5, 16, 15.79851341247559
0, 5, 17, 28.24330520629883
0, 5, 18, 136.4546356201172
0, 5, 19, 287.3930358886719
0, 5, 20, 307.5909423828125
0, 5, 21, 317.5419006347656
0, 5, 22, 277.264892578125
0, 5, 23, 310.9860534667969
0, 5, 24, 302.5578002929688
0, 5, 25, 287.4971008300781
0, 5, 26, 296.5741577148438
0, 5, 27, 324.613525390625
0, 5, 28, 303.1289978027344
0, 5, 29, 299.5860900878906
0, 5, 30, 324.2799072265625
0, 5, 31, 288.2464294433594
0, 5, 32, 302.7164306640625
0, 5, 33, 302.8671569824219
0, 5, 34, 299.899169921875
0, 5, 35, 309.3373413085938
0, 5, 36, 268.5254821777344
0, 5, 37, 281.9346618652344
0, 5, 38, 293.0228576660156
0, 5, 39, 310.9329223632812
0, 5, 40, 309.4556579589844
0, 5, 41, 274.360107421875
0, 5, 42, 306.066162109375
0, 5, 43, 315.8059692382812
0, 5, 44, 292.09912109375
0, 5, 45, 301.3035583496094
0, 5, 46, 264.6893615722656
0, 5, 47, 279.3833618164062
0, 5, 48, 293.7597045898438
0, 5, 49, 285.6320495605469
0, 5, 50, 293.7156066894531
0, 5, 51, 279.5394897460938
0, 5, 52, 268.0143432617188
0, 5, 53, 283.6868896484375
0, 5, 54, 290.1902770996094
0, 5, 55, 346.6743469238281
0, 5, 56, 309.3075256347656
0, 5, 57, 310.7794799804688
0, 5, 58, 311.3464050292969
0, 5, 59, 303.2517395019531
0, 5, 60, 306.9336242675781
0, 5, 61, 281.8505859375
0, 5, 62, 324.5086669921875
0, 5, 63, 292.2647094726562
0, 5, 64, 323.1838684082031
0, 5, 65, 306.4240112304688
0, 5, 66, 328.0776062011719
0, 5, 67, 311.1378784179688
0, 5, 68, 310.1399536132812
0, 5, 69, 311.042236328125
0, 5, 70, 300.729736328125
0, 5, 71, 272.6345520019531
0, 5, 72, 311.5380554199219
0, 5, 73, 301.1421813964844
0, 5, 74, 296.1803283691406
0, 5, 75, 295.5228271484375
0, 5, 76, 287.2265625
0, 5, 77, 299.0389709472656
0, 5, 78, 312.9364013671875
0, 5, 79, 307.8047790527344
0, 5, 80, 293.7925415039062
0, 5, 81, 324.7631225585938
0, 5, 82, 326.3712768554688
0, 5, 83, 280.5469970703125
0, 5, 84, 303.0471496582031
0, 5, 85, 270.343994140625
0, 5, 86, 325.366943359375
0, 5, 87, 283.4180908203125
0, 5, 88, 315.4788818359375
0, 5, 89, 305.4537963867188
0, 5, 90, 315.4164733886719
0, 5, 91, 313.6829528808594
0, 5, 92, 295.898193359375
0, 5, 93, 322.3838500976562
0, 5, 94, 307.8473205566406
0, 5, 95, 299.3794250488281
0, 5, 96, 297.8014831542969
0, 5, 97, 296.4293212890625
0, 5, 98, 319.56396484375
0, 5, 99, 305.2635498046875
0, 5, 100, 293.0701293945312
0, 5, 101, 304.9822387695312
0, 5, 102, 291.67138671875
0, 5, 103, 313.1906433105469
0, 5, 104, 301.5324401855469
0, 5, 105, 292.9468383789062
0, 5, 106, 283.209716796875
0, 5, 107, 292.5678405761719
0, 5, 108, 265.6935729980469
0, 5, 109, 156.2903747558594
0, 5, 110, 41.18666839599609
0, 5, 111, 19.11120986938477
0, 5, 112, 18.98940277099609
0, 5, 113, 13.46183681488037
0, 5, 114, 11.91226005554199
0, 5, 115, 9.874654769897461
0, 5, 116, 7.069149971008301
0, 5, 117, 7.273138999938965
0, 5, 118, 13.56057071685791
0, 5, 119, 6.368523120880127
0, 5, 120, 5.015850067138672
0, 5, 121, 6.33106517791748
0, 5, 122, 6.305591583251953
0, 5, 123, 5.982358455657959
0, 5, 124, 5.701160907745361
0, 5, 125, 3.429768085479736
0, 5, 126, 6.687915325164795
0, 5, 127, 5.262028694152832
0, 6, 0, 4.180883407592773
0, 6, 1, 2.59952712059021
0, 6, 2, 6.821534633636475
0, 6, 3, 6.86959171295166
0, 6, 4, 3.281697273254395
0, 6, 5, 6.558327674865723
0, 6, 6, 6.636062622070312
0, 6, 7, 6.867281913757324
0, 6, 8, 6.609687328338623
0, 6, 9, 5.623764991760254
0, 6, 10, 7.116964340209961
0, 6, 11, 8.376728057861328
0, 6, 12, 7.797197341918945
0, 6, 13, 14.71451282501221
0, 6, 14, 9.602803230285645
0, 6, 15, 16.68780708312988
0, 6, 16, 30.34724044799805
0, 6, 17, 58.1993408203125
0, 6, 18, 172.8876495361328
0, 6, 19, 278.6497192382812
0, 6, 20, 292.8902282714844
0, 6, 21, 313.4524841308594
0, 6, 22, 320.2432250976562
0, 6, 23, 304.7426452636719
0, 6, 24, 316.1640014648438
0, 6, 25, 316.4909973144531
0, 6, 26, 320.1851806640625
0, 6, 27, 329.9677124023438
0, 6, 28, 297.1572875976562
0, 6, 29, 331.5160522460938
0, 6, 30, 280.2237243652344
0, 6, 31, 286.6270141601562
0, 6, 32, 339.3200073242188
0, 6, 33, 299.7319030761719
0, 6, 34, 341.1703796386719
0, 6, 35, 319.8891296386719
0, 6, 36, 274.3917236328125
0, 6, 37, 288.7450866699219
0, 6, 38, 311.5899658203125
0, 6, 39, 298.7751770019531
0, 6, 40, 286.4839477539062
0, 6, 41, 299.8128051757812
0, 6, 42, 301.8449401855469
0, 6, 43, 287.4358825683594
0, 6, 44, 281.1451721191406
0, 6, 45, 321.29931640625
0, 6, 46, 300.8579406738281
0, 6, 47, 333.6146240234375
0, 6, 48, 291.4183349609375
0, 6, 49, 313.1378479003906
0, 6, 50, 331.2831420898438
0, 6, 51, 310.2493896484375
0, 6, 52, 320.7784423828125
0, 6, 53, 329.2327880859375
0, 6, 54, 301.4767761230469
0, 6, 55, 305.9723510742188
0, 6, 56, 292.5963134765625
0, 6, 57, 311.19775390625
0, 6, 58, 261.2477722167969
0, 6, 59, 304.1781616210938
0, 6, 60, 313.6018676757812
0, 6, 61, 270.8820495605469
0, 6, 62, 340.1034240722656
0, 6, 63, 324.9390258789062
0, 6, 64, 292.7191772460938
0, 6, 65, 283.1666259765625
0, 6, 66, 302.8250427246094
0, 6, 67, 311.5916442871094
0, 6, 68, 295.2849731445312
0, 6, 69, 277.4949951171875
0, 6, 70, 274.6388854980469
0, 6, 71, 290.1140747070312
0, 6, 72, 309.0189514160156
0, 6, 73, 294.143798828125
0, 6, 74, 329.6297607421875
0, 6, 75, 342.4655151367188
0, 6, 76, 296.28076171875
0, 6, 77, 291.6180419921875
0, 6, 78, 279.8582153320312
0, 6, 79, 292.6166381835938
0, 6, 80, 301.6432495117188
0, 6, 81, 317.0111694335938
0, 6, 82, 321.2567443847656
0, 6, 83, 321.3779296875
0, 6, 84, 296.9769287109375
0, 6, 85, 300.2471618652344
0, 6, 86, 330.0483703613281
0, 6, 87, 292.0957641601562
0, 6, 88, 305.7704162597656
0, 6, 89, 305.1292114257812
0, 6, 90, 298.5260009765625
0, 6, 91, 310.7575988769531
0, 6, 92, 283.4736633300781
0, 6, 93, 296.4771728515625
0, 6, 94, 273.4969482421875
0, 6, 95, 300.0414428710938
0, 6, 96, 347.3035583496094
0, 6, 97, 307.5403442382812
0, 6, 98, 300.2292785644531
0, 6, 99, 272.39697265625
0, 6, 100, 311.0929870605469
0, 6, 101, 294.3571166992188
0, 6, 102, 307.8702392578125
0, 6, 103, 310.6858520507812
0, 6, 104, 288.94091796875
0, 6, 105, 301.7056884765625
0, 6, 106, 307.6488342285156
0, 6, 107, 308.7690734863281
0, 6, 108, 264.7216186523438
0, 6, 109, 188.4457244873047
0, 6, 110, 55.37826156616211
0, 6, 111, 22.68968963623047
0, 6, 112, 16.22256660461426
0, 6, 113, 11.07690143585205
0, 6, 114, 14.40634918212891
0, 6, 115, 12.56749248504639
0, 6, 116, 9.776534080505371
0, 6, 117, 7.84552001953125
0, 6, 118, 11.72435855865479
0, 6, 119, 10.61314392089844
0, 6, 120, 6.445447444915771
0, 6, 121, 6.783514022827148
0, 6, 122, 5.920383453369141
0, 6, 123, 4.853414058685303
0, 6, 124, 6.310991287231445
0, 6, 125, 7.604479789733887
0, 6, 126, 3.664199113845825
0, 6, 127, 6.623329639434814
0, 7, 0, 9.134027481079102
0, 7, 1, 3.071366310119629
0, 7, 2, 5.060538768768311
0, 7, 3, 5.411430358886719
0, 7, 4, 4.905095100402832
0, 7, 5, 5.636827945709229
0, 7, 6, 5.233675956726074
0, 7, 7, 7.942436695098877
0, 7, 8, 8.309603691101074
0, 7, 9, 8.158600807189941
0, 7, 10, 9.717634201049805
0, 7, 11, 11.76000499725342
0, 7, 12, 12.48539924621582
0, 7, 13, 13.86212921142578
0, 7, 14, 10.07439041137695
0, 7, 15, 18.06384468078613
0, 7, 16, 24.95624542236328
0, 7, 17, 96.41909790039062
0, 7, 18, 221.437744140625
0, 7, 19, 289.1466674804688
0, 7, 20, 298.0834655761719
0, 7, 21, 276.27392578125
0, 7, 22, 299.8199157714844
0, 7, 23, 290.5975036621094
0, 7, 24, 313.0627136230469
0, 7, 25, 323.9439697265625
0, 7, 26, 277.8726501464844
0, 7, 27, 295.7904663085938
0, 7, 28, 326.5343933105469
0, 7, 29, 319.8371276855469
0, 7, 30, 299.9187927246094
0, 7, 31, 276.9024963378906
0, 7, 32, 304.2495422363281
0, 7, 33, 262.4219055175781
0, 7, 34, 297.9092712402344
0, 7, 35, 320.5672607421875
0, 7, 36, 330.4693603515625
0, 7, 37, 323.2341003417969
0, 7, 38, 295.5045776367188
0, 7, 39, 305.8193359375
0, 7, 40, 288.8535766601562
0, 7, 41, 274.1646423339844
0, 7, 42, 301.1452941894531
0, 7, 43, 276.1012878417969
0, 7, 44, 301.6370239257812
0, 7, 45, 295.1359558105469
0, 7, 46, 283.4909057617188
0, 7, 47, 330.4876708984375
0, 7, 48, 286.0695190429688
0, 7, 49, 302.9093933105469
0, 7, 50, 321.1564636230469
0, 7, 51, 298.6022644042969
0, 7, 52, 327.3016662597656
0, 7, 53, 309.3169860839844
0, 7, 54, 322.5879821777344
0, 7, 55, 307.0057678222656
0, 7, 56, 278.3684387207031
0, 7, 57, 283.3919372558594
0, 7, 58, 295.2255554199219
0, 7, 59, 295.9774475097656
0, 7, 60, 322.8327026367188
0, 7, 61, 277.7661743164062
0, 7, 62, 296.9618835449219
0, 7, 63, 292.9388122558594
0, 7, 64, 306.3173522949219
0, 7, 65, 330.0292663574219
0, 7, 66, 320.1257019042969
0, 7, 67, 300.9825134277344
0, 7, 68, 279.9245300292969
0, 7, 69, 293.15234375
0, 7, 70, 300.5902709960938
0, 7, 71, 310.7110900878906
0, 7, 72, 286.7207641601562
0, 7, 73, 295.8782653808594
0, 7, 74, 343.8689575195312
0, 7, 75, 317.5304870605469
0, 7, 76, 323.0439147949219
0, 7, 77, 280.0417785644531
0, 7, 78, 301.4507446289062
0, 7, 79, 297.5747680664062
0, 7, 80, 310.8514099121094
0, 7, 81, 319.2906188964844
0, 7, 82, 328.4909362792969
0, 7, 83, 316.9234313964844
0, 7, 84, 308.9358825683594
0, 7, 85, 271.9425354003906
0, 7, 86, 309.3336181640625
0, 7, 87, 310.7080993652344
0, 7, 88, 308.2612915039062
0, 7, 89, 293.2302551269531
0, 7, 90, 307.8362121582031
0, 7, 91, 319.0960388183594
0, 7, 92, 291.2223815917969
0, 7, 93, 306.7813110351562
0, 7, 94, 273.1917724609375
0, 7, 95, 294.9126586914062
0, 7, 96, 332.3807373046875
0, 7, 97, 295.4702453613281
0, 7, 98, 291.3355712890625
0, 7, 99, 311.7193298339844
0, 7, 100, 279.4597778320312
0, 7, 101, 274.7068481445312
0, 7, 102, 291.500732421875
0, 7, 103, 296.1332092285156
0, 7, 104, 274.8271789550781
0, 7, 105, 305.1642761230469
0, 7, 106, 316.9270629882812
0, 7, 107, 296.9619140625
0, 7, 108, 274.2577209472656
0, 7, 109, 234.4852905273438
0, 7, 110, 96.24236297607422
0, 7, 111, 23.27401733398438
0, 7, 112, 14.31089115142822
0, 7, 113, 16.0334300994873
0, 7, 114, 13.42865943908691
0, 7, 115, 10.10179042816162
0, 7, 116, 8.720226287841797
0, 7, 117, 6.479716300964355
0, 7, 118, 7.752820491790771
0, 7, 119, 7.67109203338623
0, 7, 120, 6.270657062530518
0, 7, 121, 8.357428550720215
0, 7, 122, 8.12205982208252
0, 7, 123, 5.347343444824219
0, 7, 124, 4.205118179321289
0, 7, 125, 6.410849094390869
0, 7, 126, 9.426126480102539
0, 7, 127, 2.838800430297852
0, 8, 0, 3.358688831329346
0, 8, 1, 5.199084281921387
0, 8, 2, 3.276132822036743
0, 8, 3, 2.206773996353149
0, 8, 4, 2.881203651428223
0, 8, 5, 5.226430416107178
0, 8, 6, 5.169472217559814
0, 8, 7, 5.651777267456055
0, 8, 8, 7.457942962646484
0, 8, 9, 7.207857608795166
0, 8, 10, 7.767602443695068
0, 8, 11, 13.09241771697998
0, 8, 12, 12.50350570678711
0, 8, 13, 12.94682312011719
0, 8, 14, 11.59039783477783
0, 8, 15, 17.76909828186035
0, 8, 16, 32.11179351806641
0, 8, 17, 131.2824249267578
0, 8, 18, 242.9973602294922
0, 8, 19, 293.1128540039062
0, 8, 20, 285.192138671875
0, 8, 21, 307.7842407226562
0, 8, 22, 294.8126525878906
0, 8, 23, 276.2918395996094
0, 8, 24, 268.2876586914062
0, 8, 25, 274.6006469726562
0, 8, 26, 305.2139282226562
0, 8, 27, 307.1780700683594
0, 8, 28, 301.8083190917969
0, 8, 29, 319.3758850097656
0, 8, 30, 313.9786987304688
0, 8, 31, 303.4006958007812
0, 8, 32, 282.7138671875
0, 8, 33, 294.44384765625
0, 8, 34, 290.5951232910156
0, 8, 35, 281.0603637695312
0, 8, 36, 316.3982238769531
0, 8, 37, 339.8655395507812
0, 8, 38, 335.264892578125
0, 8, 39, 280.8728332519531
0, 8, 40, 303.5775451660156
