# TOPAS Version: 3.1.p3
# Parameter File: batch_inserts_2.txt
# Results for scorer Readout_Adipose
# Scored in component: MyBox
# X in 1 bin  of 0.75 cm
# Y in 512 bins of 0.0783984 cm
# Z in 128 bins of 0.078125 cm
# EnergyDeposit ( MeV ) : Sum   
0, 0, 0, 2.530739545822144
0, 0, 1, 2.011299133300781
0, 0, 2, 5.583454608917236
0, 0, 3, 1.351232886314392
0, 0, 4, 2.983662128448486
0, 0, 5, 5.226307392120361
0, 0, 6, 5.997668266296387
0, 0, 7, 8.673534393310547
0, 0, 8, 3.428695440292358
0, 0, 9, 3.554244756698608
0, 0, 10, 6.191516876220703
0, 0, 11, 4.246193885803223
0, 0, 12, 4.744795322418213
0, 0, 13, 7.573104381561279
0, 0, 14, 7.321211814880371
0, 0, 15, 9.104340553283691
0, 0, 16, 8.875920295715332
0, 0, 17, 9.373471260070801
0, 0, 18, 15.12453079223633
0, 0, 19, 46.98966979980469
0, 0, 20, 140.3211059570312
0, 0, 21, 222.3957672119141
0, 0, 22, 248.6424255371094
0, 0, 23, 255.7513275146484
0, 0, 24, 251.8211517333984
0, 0, 25, 259.5700988769531
0, 0, 26, 235.8614349365234
0, 0, 27, 237.6738739013672
0, 0, 28, 272.02734375
0, 0, 29, 252.6343383789062
0, 0, 30, 228.8927307128906
0, 0, 31, 244.0992889404297
0, 0, 32, 263.8194885253906
0, 0, 33, 261.908935546875
0, 0, 34, 287.3734130859375
0, 0, 35, 267.3506774902344
0, 0, 36, 246.8605194091797
0, 0, 37, 253.8252716064453
0, 0, 38, 270.2842407226562
0, 0, 39, 228.7568206787109
0, 0, 40, 241.0499572753906
0, 0, 41, 265.1716918945312
0, 0, 42, 229.111328125
0, 0, 43, 260.0974426269531
0, 0, 44, 251.9612731933594
0, 0, 45, 252.8140258789062
0, 0, 46, 244.8085784912109
0, 0, 47, 253.7917938232422
0, 0, 48, 268.7043762207031
0, 0, 49, 274.8075256347656
0, 0, 50, 251.8319702148438
0, 0, 51, 254.6194305419922
0, 0, 52, 272.9918212890625
0, 0, 53, 291.449951171875
0, 0, 54, 242.5337219238281
0, 0, 55, 240.6183471679688
0, 0, 56, 277.0733032226562
0, 0, 57, 263.3070983886719
0, 0, 58, 246.1091461181641
0, 0, 59, 272.2196655273438
0, 0, 60, 235.8657379150391
0, 0, 61, 244.1826934814453
0, 0, 62, 256.0213012695312
0, 0, 63, 265.1372985839844
0, 0, 64, 256.2172546386719
0, 0, 65, 260.3811950683594
0, 0, 66, 277.1004638671875
0, 0, 67, 246.4477233886719
0, 0, 68, 260.3350830078125
0, 0, 69, 262.3830261230469
0, 0, 70, 270.7741088867188
0, 0, 71, 237.4929504394531
0, 0, 72, 252.5901794433594
0, 0, 73, 258.7620544433594
0, 0, 74, 251.5556793212891
0, 0, 75, 240.8299407958984
0, 0, 76, 228.6706848144531
0, 0, 77, 262.2474060058594
0, 0, 78, 255.4141540527344
0, 0, 79, 276.8549499511719
0, 0, 80, 216.2997589111328
0, 0, 81, 268.0021362304688
0, 0, 82, 256.6282653808594
0, 0, 83, 244.8863677978516
0, 0, 84, 269.3872680664062
0, 0, 85, 231.9660949707031
0, 0, 86, 252.5542602539062
0, 0, 87, 250.5055694580078
0, 0, 88, 258.6687316894531
0, 0, 89, 282.6641540527344
0, 0, 90, 242.6049652099609
0, 0, 91, 280.5902404785156
0, 0, 92, 253.6947937011719
0, 0, 93, 249.2355804443359
0, 0, 94, 247.843017578125
0, 0, 95, 247.7611389160156
0, 0, 96, 277.3882751464844
0, 0, 97, 273.3642272949219
0, 0, 98, 276.119873046875
0, 0, 99, 258.7905578613281
0, 0, 100, 258.5687255859375
0, 0, 101, 226.0057373046875
0, 0, 102, 232.6621398925781
0, 0, 103, 269.6220092773438
0, 0, 104, 253.4878234863281
0, 0, 105, 252.2973480224609
0, 0, 106, 246.1792297363281
0, 0, 107, 155.5556335449219
0, 0, 108, 39.24287414550781
0, 0, 109, 12.15485000610352
0, 0, 110, 12.71036052703857
0, 0, 111, 8.313910484313965
0, 0, 112, 6.563183307647705
0, 0, 113, 4.486737251281738
0, 0, 114, 5.543191909790039
0, 0, 115, 8.5875244140625
0, 0, 116, 5.239087581634521
0, 0, 117, 7.171799659729004
0, 0, 118, 7.028960227966309
0, 0, 119, 6.247462272644043
0, 0, 120, 5.844688415527344
0, 0, 121, 5.619417190551758
0, 0, 122, 7.562552928924561
0, 0, 123, 4.36786413192749
0, 0, 124, 4.663448333740234
0, 0, 125, 2.882527589797974
0, 0, 126, 4.020548343658447
0, 0, 127, 3.568511486053467
0, 1, 0, 6.771495819091797
0, 1, 1, 2.537946701049805
0, 1, 2, 4.501856327056885
0, 1, 3, 4.949827671051025
0, 1, 4, 5.832529544830322
0, 1, 5, 2.643013715744019
0, 1, 6, 6.071249008178711
0, 1, 7, 5.413007736206055
0, 1, 8, 7.535748958587646
0, 1, 9, 3.589132785797119
0, 1, 10, 7.049813270568848
0, 1, 11, 11.48390483856201
0, 1, 12, 7.758035182952881
0, 1, 13, 10.28096961975098
0, 1, 14, 8.615675926208496
0, 1, 15, 6.76615047454834
0, 1, 16, 12.90389823913574
0, 1, 17, 11.1100549697876
0, 1, 18, 20.85026359558105
0, 1, 19, 68.95553588867188
0, 1, 20, 199.5757141113281
0, 1, 21, 254.34375
0, 1, 22, 298.6878967285156
0, 1, 23, 281.9345092773438
0, 1, 24, 275.4922180175781
0, 1, 25, 290.6226806640625
0, 1, 26, 266.5685424804688
0, 1, 27, 307.6385192871094
0, 1, 28, 300.7124328613281
0, 1, 29, 295.697998046875
0, 1, 30, 280.4194946289062
0, 1, 31, 291.1342163085938
0, 1, 32, 290.0088500976562
0, 1, 33, 295.0763854980469
0, 1, 34, 291.1878051757812
0, 1, 35, 278.8797607421875
0, 1, 36, 307.5432434082031
0, 1, 37, 295.4840698242188
0, 1, 38, 281.8543701171875
0, 1, 39, 297.1109619140625
0, 1, 40, 266.9940795898438
0, 1, 41, 285.3019104003906
0, 1, 42, 292.3396606445312
0, 1, 43, 331.1257934570312
0, 1, 44, 280.0995483398438
0, 1, 45, 293.2683715820312
0, 1, 46, 260.1032409667969
0, 1, 47, 309.7697143554688
0, 1, 48, 286.872802734375
0, 1, 49, 301.8249816894531
0, 1, 50, 264.6597290039062
0, 1, 51, 273.6123352050781
0, 1, 52, 294.4613037109375
0, 1, 53, 304.5511169433594
0, 1, 54, 275.9946899414062
0, 1, 55, 293.8544616699219
0, 1, 56, 277.3356018066406
0, 1, 57, 297.2652893066406
0, 1, 58, 311.0982971191406
0, 1, 59, 292.5389709472656
0, 1, 60, 297.2080993652344
0, 1, 61, 274.675048828125
0, 1, 62, 309.2620544433594
0, 1, 63, 286.8056030273438
0, 1, 64, 289.996337890625
0, 1, 65, 295.282470703125
0, 1, 66, 292.1587829589844
0, 1, 67, 294.2534484863281
0, 1, 68, 279.7521667480469
0, 1, 69, 278.8653869628906
0, 1, 70, 272.4482421875
0, 1, 71, 274.2338562011719
0, 1, 72, 285.9617309570312
0, 1, 73, 306.0342712402344
0, 1, 74, 304.8905029296875
0, 1, 75, 294.404296875
0, 1, 76, 284.5584716796875
0, 1, 77, 289.5180969238281
0, 1, 78, 295.9000244140625
0, 1, 79, 301.1298828125
0, 1, 80, 295.9326477050781
0, 1, 81, 300.015380859375
0, 1, 82, 283.0475463867188
0, 1, 83, 330.3893737792969
0, 1, 84, 308.2205200195312
0, 1, 85, 255.4887237548828
0, 1, 86, 295.3581237792969
0, 1, 87, 290.4941101074219
0, 1, 88, 299.1672668457031
0, 1, 89, 290.5384521484375
0, 1, 90, 272.1160278320312
0, 1, 91, 317.1784057617188
0, 1, 92, 291.7142944335938
0, 1, 93, 287.5660705566406
0, 1, 94, 302.8650207519531
0, 1, 95, 284.2488098144531
0, 1, 96, 282.261474609375
0, 1, 97, 301.7247619628906
0, 1, 98, 276.9098510742188
0, 1, 99, 267.6828918457031
0, 1, 100, 275.9049377441406
0, 1, 101, 281.6509094238281
0, 1, 102, 278.5713500976562
0, 1, 103, 281.9333801269531
0, 1, 104, 305.4492797851562
0, 1, 105, 298.5248107910156
0, 1, 106, 263.5401000976562
0, 1, 107, 192.0845642089844
0, 1, 108, 83.86028289794922
0, 1, 109, 25.44097328186035
0, 1, 110, 11.65880489349365
0, 1, 111, 8.940237998962402
0, 1, 112, 11.91021728515625
0, 1, 113, 5.067027568817139
0, 1, 114, 8.824908256530762
0, 1, 115, 7.638072490692139
0, 1, 116, 11.17946624755859
0, 1, 117, 5.747464656829834
0, 1, 118, 7.059874534606934
0, 1, 119, 5.588701725006104
0, 1, 120, 5.237715721130371
0, 1, 121, 7.757088184356689
0, 1, 122, 2.632719993591309
0, 1, 123, 6.989910125732422
0, 1, 124, 8.12155818939209
0, 1, 125, 3.789669036865234
0, 1, 126, 1.641240477561951
0, 1, 127, 1.374230027198792
0, 2, 0, 4.409289360046387
0, 2, 1, 1.005092263221741
0, 2, 2, 2.742041349411011
0, 2, 3, 3.393476724624634
0, 2, 4, 3.282290458679199
0, 2, 5, 2.424915790557861
0, 2, 6, 2.621987104415894
0, 2, 7, 3.632880449295044
0, 2, 8, 5.123853206634521
0, 2, 9, 7.680912017822266
0, 2, 10, 7.355990409851074
0, 2, 11, 7.167762279510498
0, 2, 12, 6.366854190826416
0, 2, 13, 10.28861427307129
0, 2, 14, 9.439318656921387
0, 2, 15, 7.621857643127441
0, 2, 16, 9.290592193603516
0, 2, 17, 16.61981010437012
0, 2, 18, 32.59873962402344
0, 2, 19, 115.0401763916016
0, 2, 20, 244.8500671386719
0, 2, 21, 271.6617126464844
0, 2, 22, 315.4331665039062
0, 2, 23, 300.9114990234375
0, 2, 24, 285.88916015625
0, 2, 25, 303.8867797851562
0, 2, 26, 293.2760009765625
0, 2, 27, 277.0706787109375
0, 2, 28, 272.8718872070312
0, 2, 29, 274.2394409179688
0, 2, 30, 289.8545227050781
0, 2, 31, 275.9959106445312
0, 2, 32, 293.7756042480469
0, 2, 33, 281.7997436523438
0, 2, 34, 330.8160705566406
0, 2, 35, 290.4198913574219
0, 2, 36, 304.6669311523438
0, 2, 37, 316.6004028320312
0, 2, 38, 309.9449768066406
0, 2, 39, 267.77294921875
0, 2, 40, 307.3684387207031
0, 2, 41, 292.2673034667969
0, 2, 42, 305.1669921875
0, 2, 43, 313.1298217773438
0, 2, 44, 311.4672546386719
0, 2, 45, 325.9458923339844
0, 2, 46, 286.8279418945312
0, 2, 47, 302.3681640625
0, 2, 48, 282.7498474121094
0, 2, 49, 278.3537292480469
0, 2, 50, 293.313720703125
0, 2, 51, 284.6115112304688
0, 2, 52, 273.8604431152344
0, 2, 53, 286.8762512207031
0, 2, 54, 283.16748046875
0, 2, 55, 276.6576538085938
0, 2, 56, 301.0538330078125
0, 2, 57, 294.5870056152344
0, 2, 58, 301.684814453125
0, 2, 59, 287.9302673339844
0, 2, 60, 318.9196472167969
0, 2, 61, 302.9423828125
0, 2, 62, 314.1036071777344
0, 2, 63, 302.4735412597656
0, 2, 64, 298.7334594726562
0, 2, 65, 311.6742248535156
0, 2, 66, 279.1351013183594
0, 2, 67, 291.7235412597656
0, 2, 68, 298.6354370117188
0, 2, 69, 310.3778076171875
0, 2, 70, 334.433349609375
0, 2, 71, 284.0369567871094
0, 2, 72, 300.9125061035156
0, 2, 73, 310.999267578125
0, 2, 74, 286.8841247558594
0, 2, 75, 305.4260864257812
0, 2, 76, 285.9477844238281
0, 2, 77, 299.6424560546875
0, 2, 78, 315.1199340820312
0, 2, 79, 307.5040283203125
0, 2, 80, 298.3143615722656
0, 2, 81, 284.6441650390625
0, 2, 82, 317.8025512695312
0, 2, 83, 312.2021484375
0, 2, 84, 288.7048034667969
0, 2, 85, 280.0916137695312
0, 2, 86, 325.7689819335938
0, 2, 87, 287.5085144042969
0, 2, 88, 279.4945068359375
0, 2, 89, 298.43017578125
0, 2, 90, 294.8601379394531
0, 2, 91, 274.6546630859375
0, 2, 92, 305.3918762207031
0, 2, 93, 317.9500732421875
0, 2, 94, 292.085205078125
0, 2, 95, 316.4370727539062
0, 2, 96, 316.536376953125
0, 2, 97, 290.8119201660156
0, 2, 98, 291.5658874511719
0, 2, 99, 274.4339599609375
0, 2, 100, 306.4836730957031
0, 2, 101, 301.873046875
0, 2, 102, 296.4338989257812
0, 2, 103, 291.5354614257812
0, 2, 104, 293.6973266601562
0, 2, 105, 273.5264282226562
0, 2, 106, 295.8298645019531
0, 2, 107, 271.6991577148438
0, 2, 108, 116.6388778686523
0, 2, 109, 32.10594177246094
0, 2, 110, 9.516357421875
0, 2, 111, 12.68514633178711
0, 2, 112, 8.47612476348877
0, 2, 113, 11.35968685150146
0, 2, 114, 11.3591365814209
0, 2, 115, 9.041272163391113
0, 2, 116, 10.94580459594727
0, 2, 117, 5.475494861602783
0, 2, 118, 4.002319812774658
0, 2, 119, 6.48139762878418
0, 2, 120, 5.875927448272705
0, 2, 121, 1.628516674041748
0, 2, 122, 4.896424770355225
0, 2, 123, 6.074709415435791
0, 2, 124, 6.817844867706299
0, 2, 125, 5.495120525360107
0, 2, 126, 2.578151702880859
0, 2, 127, 5.387858867645264
0, 3, 0, 2.838058710098267
0, 3, 1, 2.970534563064575
0, 3, 2, 4.116833209991455
0, 3, 3, 3.397760152816772
0, 3, 4, 3.151002407073975
0, 3, 5, 7.637956142425537
0, 3, 6, 8.917767524719238
0, 3, 7, 5.290630340576172
0, 3, 8, 6.023482322692871
0, 3, 9, 5.188933372497559
0, 3, 10, 7.512815475463867
0, 3, 11, 3.816159963607788
0, 3, 12, 9.172560691833496
0, 3, 13, 16.6949348449707
0, 3, 14, 12.02814960479736
0, 3, 15, 16.17359352111816
0, 3, 16, 12.52781105041504
0, 3, 17, 18.73152351379395
0, 3, 18, 52.54470062255859
0, 3, 19, 175.4057006835938
0, 3, 20, 270.1322021484375
0, 3, 21, 270.8938903808594
0, 3, 22, 283.4609375
0, 3, 23, 285.6021118164062
0, 3, 24, 286.6958618164062
0, 3, 25, 270.0306396484375
0, 3, 26, 303.2835998535156
0, 3, 27, 293.9717102050781
0, 3, 28, 281.6072082519531
0, 3, 29, 338.7850952148438
0, 3, 30, 315.4572448730469
0, 3, 31, 288.1014099121094
0, 3, 32, 309.1798400878906
0, 3, 33, 313.4160461425781
0, 3, 34, 321.0667114257812
0, 3, 35, 306.7694702148438
0, 3, 36, 269.1145935058594
0, 3, 37, 311.7131652832031
0, 3, 38, 305.2965698242188
0, 3, 39, 290.8935241699219
0, 3, 40, 266.9784545898438
0, 3, 41, 299.7630920410156
0, 3, 42, 284.4626770019531
0, 3, 43, 306.4327392578125
0, 3, 44, 309.4062805175781
0, 3, 45, 289.6517333984375
0, 3, 46, 331.3904113769531
0, 3, 47, 300.4352722167969
0, 3, 48, 303.3009033203125
0, 3, 49, 278.5771789550781
0, 3, 50, 291.056640625
0, 3, 51, 274.567626953125
0, 3, 52, 314.6682434082031
0, 3, 53, 289.9656066894531
0, 3, 54, 283.714111328125
0, 3, 55, 283.1585693359375
0, 3, 56, 298.968505859375
0, 3, 57, 289.6156005859375
0, 3, 58, 306.7183532714844
0, 3, 59, 296.2362976074219
0, 3, 60, 300.6499328613281
0, 3, 61, 267.2352294921875
0, 3, 62, 286.3833312988281
0, 3, 63, 307.2918090820312
0, 3, 64, 318.202392578125
0, 3, 65, 307.4360961914062
0, 3, 66, 315.3999328613281
0, 3, 67, 320.9426574707031
0, 3, 68, 280.9026184082031
0, 3, 69, 279.3313598632812
0, 3, 70, 288.4429016113281
0, 3, 71, 297.5958557128906
0, 3, 72, 269.1702880859375
0, 3, 73, 305.7828979492188
0, 3, 74, 291.8122863769531
0, 3, 75, 290.1896362304688
0, 3, 76, 304.5918273925781
0, 3, 77, 313.954345703125
0, 3, 78, 301.6094665527344
0, 3, 79, 282.4133605957031
0, 3, 80, 291.1821594238281
0, 3, 81, 309.8815307617188
0, 3, 82, 317.2912902832031
0, 3, 83, 300.4800415039062
0, 3, 84, 313.1781005859375
0, 3, 85, 292.2073669433594
0, 3, 86, 301.6223449707031
0, 3, 87, 298.2114562988281
0, 3, 88, 298.9137573242188
0, 3, 89, 294.8885192871094
0, 3, 90, 275.430908203125
0, 3, 91, 286.1299438476562
0, 3, 92, 303.4234008789062
0, 3, 93, 312.2325134277344
0, 3, 94, 297.6521606445312
0, 3, 95, 335.4821472167969
0, 3, 96, 290.2039794921875
0, 3, 97, 282.1101379394531
0, 3, 98, 278.1325988769531
0, 3, 99, 260.7149963378906
0, 3, 100, 285.6388854980469
0, 3, 101, 297.4358520507812
0, 3, 102, 275.5432434082031
0, 3, 103, 320.6045837402344
0, 3, 104, 310.0126342773438
0, 3, 105, 288.0804748535156
0, 3, 106, 303.5390625
0, 3, 107, 282.0555419921875
0, 3, 108, 169.1277313232422
0, 3, 109, 57.78320693969727
0, 3, 110, 18.07431030273438
0, 3, 111, 14.16620254516602
0, 3, 112, 12.33967590332031
0, 3, 113, 6.977088451385498
0, 3, 114, 9.401044845581055
0, 3, 115, 9.970414161682129
0, 3, 116, 8.82835578918457
0, 3, 117, 8.190289497375488
0, 3, 118, 9.067516326904297
0, 3, 119, 7.953122138977051
0, 3, 120, 3.700853824615479
0, 3, 121, 2.259755373001099
0, 3, 122, 3.953407049179077
0, 3, 123, 5.263473033905029
0, 3, 124, 1.982707977294922
0, 3, 125, 4.924418449401855
0, 3, 126, 5.096224308013916
0, 3, 127, 2.920793056488037
0, 4, 0, 1.901534676551819
0, 4, 1, 5.289244174957275
0, 4, 2, 3.632285833358765
0, 4, 3, 1.580371379852295
0, 4, 4, 5.746285438537598
0, 4, 5, 8.906242370605469
0, 4, 6, 8.923478126525879
0, 4, 7, 4.061456680297852
0, 4, 8, 5.678358554840088
0, 4, 9, 7.553586959838867
0, 4, 10, 6.048248291015625
0, 4, 11, 8.541479110717773
0, 4, 12, 6.720448970794678
0, 4, 13, 8.669100761413574
0, 4, 14, 11.22142791748047
0, 4, 15, 9.524626731872559
0, 4, 16, 14.5357551574707
0, 4, 17, 17.25175666809082
0, 4, 18, 92.63515472412109
0, 4, 19, 221.9002075195312
0, 4, 20, 284.3484802246094
0, 4, 21, 272.2557373046875
0, 4, 22, 305.3954467773438
0, 4, 23, 268.2191772460938
0, 4, 24, 288.9666748046875
0, 4, 25, 272.703369140625
0, 4, 26, 295.1026306152344
0, 4, 27, 282.8958435058594
0, 4, 28, 305.17724609375
0, 4, 29, 321.4869384765625
0, 4, 30, 309.9544982910156
0, 4, 31, 305.3602600097656
0, 4, 32, 280.73291015625
0, 4, 33, 295.8578796386719
0, 4, 34, 297.6607971191406
0, 4, 35, 313.7784729003906
0, 4, 36, 292.2171020507812
0, 4, 37, 288.31396484375
0, 4, 38, 302.5640258789062
0, 4, 39, 295.2398071289062
0, 4, 40, 301.5994873046875
0, 4, 41, 310.5171813964844
0, 4, 42, 331.5696105957031
0, 4, 43, 294.72802734375
0, 4, 44, 319.6023864746094
0, 4, 45, 329.0503540039062
0, 4, 46, 306.1856384277344
0, 4, 47, 292.684326171875
0, 4, 48, 297.6778564453125
0, 4, 49, 277.9499816894531
0, 4, 50, 295.5940856933594
0, 4, 51, 315.6900329589844
0, 4, 52, 326.8820190429688
0, 4, 53, 305.1747436523438
0, 4, 54, 287.4118347167969
0, 4, 55, 314.3252868652344
0, 4, 56, 288.4415588378906
0, 4, 57, 309.8904724121094
0, 4, 58, 295.2214660644531
0, 4, 59, 307.4359741210938
0, 4, 60, 302.1675720214844
0, 4, 61, 318.9057006835938
0, 4, 62, 307.9092712402344
0, 4, 63, 301.3685913085938
0, 4, 64, 329.2087097167969
0, 4, 65, 314.7532043457031
0, 4, 66, 296.3843994140625
0, 4, 67, 284.7237854003906
0, 4, 68, 312.9820556640625
0, 4, 69, 276.2202453613281
0, 4, 70, 301.7419128417969
0, 4, 71, 322.1810913085938
0, 4, 72, 334.2203674316406
0, 4, 73, 298.2072143554688
0, 4, 74, 294.3092651367188
0, 4, 75, 288.3409423828125
0, 4, 76, 276.4928283691406
0, 4, 77, 277.4053344726562
0, 4, 78, 311.3063354492188
0, 4, 79, 319.1415100097656
0, 4, 80, 315.6756896972656
0, 4, 81, 312.6827697753906
0, 4, 82, 296.6791381835938
0, 4, 83, 300.4003295898438
0, 4, 84, 291.881591796875
0, 4, 85, 295.3906860351562
0, 4, 86, 299.7391967773438
0, 4, 87, 286.3717346191406
0, 4, 88, 303.9136657714844
0, 4, 89, 293.3014831542969
0, 4, 90, 332.5086975097656
0, 4, 91, 302.8109436035156
0, 4, 92, 289.2896423339844
0, 4, 93, 297.8985595703125
0, 4, 94, 291.0694274902344
0, 4, 95, 288.9234008789062
0, 4, 96, 322.6102905273438
0, 4, 97, 274.7783813476562
0, 4, 98, 326.1427917480469
0, 4, 99, 312.4489440917969
0, 4, 100, 300.3095092773438
0, 4, 101, 258.3336791992188
0, 4, 102, 295.9297180175781
0, 4, 103, 316.0770263671875
0, 4, 104, 280.8471374511719
0, 4, 105, 312.5615539550781
0, 4, 106, 286.5848999023438
0, 4, 107, 295.26513671875
0, 4, 108, 225.4757537841797
0, 4, 109, 79.60599517822266
0, 4, 110, 16.77998352050781
0, 4, 111, 13.64494514465332
0, 4, 112, 9.515436172485352
0, 4, 113, 11.49155521392822
0, 4, 114, 9.266022682189941
0, 4, 115, 10.14926528930664
0, 4, 116, 8.56305980682373
0, 4, 117, 5.470792770385742
0, 4, 118, 8.630536079406738
0, 4, 119, 8.30830192565918
0, 4, 120, 4.134781360626221
0, 4, 121, 6.569327831268311
0, 4, 122, 2.749482870101929
0, 4, 123, 5.607424259185791
0, 4, 124, 5.891257286071777
0, 4, 125, 10.35870742797852
0, 4, 126, 4.758364677429199
0, 4, 127, 3.172932386398315
0, 5, 0, 3.51283860206604
0, 5, 1, 6.052655696868896
0, 5, 2, 4.068447113037109
0, 5, 3, 2.857221603393555
0, 5, 4, 4.823636054992676
0, 5, 5, 5.419600009918213
0, 5, 6, 5.976931571960449
0, 5, 7, 4.750476360321045
0, 5, 8, 6.901014804840088
0, 5, 9, 6.631689548492432
0, 5, 10, 9.445273399353027
0, 5, 11, 7.811484813690186
0, 5, 12, 7.344861507415771
0, 5, 13, 6.699033737182617
0, 5, 14, 13.00848770141602
0, 5, 15, 16.78904724121094
0, 5, 16, 13.9754114151001
0, 5, 17, 29.23688697814941
0, 5, 18, 139.8570404052734
0, 5, 19, 288.5550842285156
0, 5, 20, 306.9451293945312
0, 5, 21, 317.3496704101562
0, 5, 22, 275.3579406738281
0, 5, 23, 310.35693359375
0, 5, 24, 302.3018798828125
0, 5, 25, 288.2007446289062
0, 5, 26, 294.3462219238281
0, 5, 27, 322.8146057128906
0, 5, 28, 301.9064331054688
0, 5, 29, 299.0217895507812
0, 5, 30, 323.2659912109375
0, 5, 31, 286.5286560058594
0, 5, 32, 301.4268188476562
0, 5, 33, 302.7592163085938
0, 5, 34, 294.65576171875
0, 5, 35, 308.9277038574219
0, 5, 36, 272.0182800292969
0, 5, 37, 283.7867431640625
0, 5, 38, 291.5837707519531
0, 5, 39, 312.6607360839844
0, 5, 40, 309.0703125
0, 5, 41, 273.5508422851562
0, 5, 42, 305.0257873535156
0, 5, 43, 315.836669921875
0, 5, 44, 291.6284790039062
0, 5, 45, 300.9292297363281
0, 5, 46, 264.18359375
0, 5, 47, 281.408935546875
0, 5, 48, 295.6091003417969
0, 5, 49, 286.1589050292969
0, 5, 50, 294.4771423339844
0, 5, 51, 279.5979919433594
0, 5, 52, 268.2852783203125
0, 5, 53, 284.5304565429688
0, 5, 54, 293.4684143066406
0, 5, 55, 345.7854919433594
0, 5, 56, 305.48974609375
0, 5, 57, 307.8257446289062
0, 5, 58, 312.7478637695312
0, 5, 59, 304.8539428710938
0, 5, 60, 306.4330139160156
0, 5, 61, 283.1199035644531
0, 5, 62, 324.9480285644531
0, 5, 63, 289.6458129882812
0, 5, 64, 322.51025390625
0, 5, 65, 304.8811950683594
0, 5, 66, 328.4318237304688
0, 5, 67, 314.6310729980469
0, 5, 68, 307.596435546875
0, 5, 69, 311.5079956054688
0, 5, 70, 300.22802734375
0, 5, 71, 273.7572937011719
0, 5, 72, 310.324951171875
0, 5, 73, 302.2185668945312
0, 5, 74, 295.5111694335938
0, 5, 75, 294.5671691894531
0, 5, 76, 286.4673767089844
0, 5, 77, 299.7328491210938
0, 5, 78, 313.8153991699219
0, 5, 79, 306.6027221679688
0, 5, 80, 293.8991088867188
0, 5, 81, 325.92919921875
0, 5, 82, 324.1829223632812
0, 5, 83, 280.9752807617188
0, 5, 84, 301.8813781738281
0, 5, 85, 270.1072082519531
0, 5, 86, 324.0932312011719
0, 5, 87, 284.5133361816406
0, 5, 88, 312.4395141601562
0, 5, 89, 303.9622497558594
0, 5, 90, 316.9228210449219
0, 5, 91, 314.3306274414062
0, 5, 92, 296.2926940917969
0, 5, 93, 321.8656616210938
0, 5, 94, 307.6100158691406
0, 5, 95, 297.5296325683594
0, 5, 96, 297.5715026855469
0, 5, 97, 294.9557800292969
0, 5, 98, 319.2213439941406
0, 5, 99, 300.6415100097656
0, 5, 100, 290.2016906738281
0, 5, 101, 307.7497863769531
0, 5, 102, 295.0751342773438
0, 5, 103, 312.7042846679688
0, 5, 104, 300.38671875
0, 5, 105, 292.1257019042969
0, 5, 106, 281.8930969238281
0, 5, 107, 292.7090759277344
0, 5, 108, 266.0170288085938
0, 5, 109, 160.3182525634766
0, 5, 110, 40.36297988891602
0, 5, 111, 21.84152412414551
0, 5, 112, 16.07452392578125
0, 5, 113, 14.94864845275879
0, 5, 114, 12.17922687530518
0, 5, 115, 7.44218111038208
0, 5, 116, 10.7764139175415
0, 5, 117, 6.482778072357178
0, 5, 118, 14.68270206451416
0, 5, 119, 5.127935409545898
0, 5, 120, 5.493722915649414
0, 5, 121, 4.911469459533691
0, 5, 122, 5.278605461120605
0, 5, 123, 8.107865333557129
0, 5, 124, 4.873806953430176
0, 5, 125, 5.464259147644043
0, 5, 126, 6.358556747436523
0, 5, 127, 3.064379215240479
0, 6, 0, 4.640416145324707
0, 6, 1, 3.035601139068604
0, 6, 2, 6.126636981964111
0, 6, 3, 4.597847461700439
0, 6, 4, 3.488330125808716
0, 6, 5, 6.316385746002197
0, 6, 6, 7.733996391296387
0, 6, 7, 5.468788146972656
0, 6, 8, 8.110682487487793
0, 6, 9, 8.283447265625
0, 6, 10, 7.1373610496521
0, 6, 11, 8.789279937744141
0, 6, 12, 9.114588737487793
0, 6, 13, 12.36015605926514
0, 6, 14, 9.19057559967041
0, 6, 15, 16.5263500213623
0, 6, 16, 27.89211082458496
0, 6, 17, 55.02736663818359
0, 6, 18, 171.9261474609375
0, 6, 19, 275.8731689453125
0, 6, 20, 291.4151306152344
0, 6, 21, 315.3822631835938
0, 6, 22, 320.00146484375
0, 6, 23, 305.6864013671875
0, 6, 24, 316.3549194335938
0, 6, 25, 316.719482421875
0, 6, 26, 321.3197326660156
0, 6, 27, 330.5228271484375
0, 6, 28, 295.4747924804688
0, 6, 29, 328.179931640625
0, 6, 30, 282.779296875
0, 6, 31, 287.3104553222656
0, 6, 32, 341.0188903808594
0, 6, 33, 299.6328125
0, 6, 34, 341.4075622558594
0, 6, 35, 321.8411560058594
0, 6, 36, 272.9231262207031
0, 6, 37, 287.2369689941406
0, 6, 38, 311.5619812011719
0, 6, 39, 298.2016906738281
0, 6, 40, 282.8306274414062
0, 6, 41, 296.1015930175781
0, 6, 42, 304.8822021484375
0, 6, 43, 288.5838317871094
0, 6, 44, 279.3536071777344
0, 6, 45, 321.5621643066406
0, 6, 46, 300.2894897460938
0, 6, 47, 335.2454833984375
0, 6, 48, 291.7873840332031
0, 6, 49, 311.3193969726562
0, 6, 50, 327.1922302246094
0, 6, 51, 311.2814636230469
0, 6, 52, 328.1048889160156
0, 6, 53, 328.5402221679688
0, 6, 54, 302.8348083496094
0, 6, 55, 306.1991882324219
0, 6, 56, 293.3634338378906
0, 6, 57, 311.8133239746094
0, 6, 58, 263.8775024414062
0, 6, 59, 301.6177978515625
0, 6, 60, 316.849609375
0, 6, 61, 272.3362426757812
0, 6, 62, 340.4491882324219
0, 6, 63, 324.1571044921875
0, 6, 64, 290.93798828125
0, 6, 65, 285.9552612304688
0, 6, 66, 304.4548645019531
0, 6, 67, 310.7735900878906
0, 6, 68, 294.0249328613281
0, 6, 69, 277.6117248535156
0, 6, 70, 273.3423156738281
0, 6, 71, 288.8415832519531
0, 6, 72, 314.0240783691406
0, 6, 73, 291.4093017578125
0, 6, 74, 330.1715698242188
0, 6, 75, 343.9888000488281
0, 6, 76, 297.8793334960938
0, 6, 77, 287.2216186523438
0, 6, 78, 279.5366516113281
0, 6, 79, 293.4337158203125
0, 6, 80, 298.8171691894531
0, 6, 81, 317.12451171875
0, 6, 82, 317.7113952636719
0, 6, 83, 321.1516418457031
0, 6, 84, 295.9139404296875
0, 6, 85, 300.6451416015625
0, 6, 86, 329.4123229980469
0, 6, 87, 292.4977111816406
0, 6, 88, 307.3817749023438
0, 6, 89, 305.0217895507812
0, 6, 90, 298.7097473144531
0, 6, 91, 311.4228210449219
0, 6, 92, 283.3264465332031
0, 6, 93, 296.3817138671875
0, 6, 94, 275.4494323730469
0, 6, 95, 300.0206298828125
0, 6, 96, 348.20703125
0, 6, 97, 308.2518920898438
0, 6, 98, 300.6322021484375
0, 6, 99, 272.1950378417969
0, 6, 100, 309.9140319824219
0, 6, 101, 292.3007507324219
0, 6, 102, 308.0291748046875
0, 6, 103, 307.3375549316406
0, 6, 104, 292.4017639160156
0, 6, 105, 301.1449279785156
0, 6, 106, 306.4151611328125
0, 6, 107, 309.3099060058594
0, 6, 108, 264.5160522460938
0, 6, 109, 184.7119598388672
0, 6, 110, 56.43786239624023
0, 6, 111, 21.66623306274414
0, 6, 112, 13.00149154663086
0, 6, 113, 12.27350425720215
0, 6, 114, 11.5957670211792
0, 6, 115, 11.05458927154541
0, 6, 116, 9.824267387390137
0, 6, 117, 8.177962303161621
0, 6, 118, 8.964021682739258
0, 6, 119, 6.159276962280273
0, 6, 120, 6.655652523040771
0, 6, 121, 6.523566722869873
0, 6, 122, 7.742660045623779
0, 6, 123, 7.884805679321289
0, 6, 124, 7.763448715209961
0, 6, 125, 5.151913166046143
0, 6, 126, 2.876786231994629
0, 6, 127, 7.305683612823486
0, 7, 0, 6.340053081512451
0, 7, 1, 4.727059841156006
0, 7, 2, 5.54191255569458
0, 7, 3, 4.206016540527344
0, 7, 4, 3.245880365371704
0, 7, 5, 6.279530048370361
0, 7, 6, 6.207444190979004
0, 7, 7, 5.123236179351807
0, 7, 8, 5.062787532806396
0, 7, 9, 6.595666408538818
0, 7, 10, 8.455801963806152
0, 7, 11, 9.504001617431641
0, 7, 12, 10.77116012573242
0, 7, 13, 11.94154834747314
0, 7, 14, 11.18458080291748
0, 7, 15, 18.31584930419922
0, 7, 16, 26.62149429321289
0, 7, 17, 97.40420532226562
0, 7, 18, 218.5345611572266
0, 7, 19, 288.3894958496094
0, 7, 20, 298.1908569335938
0, 7, 21, 278.4528503417969
0, 7, 22, 299.5886840820312
0, 7, 23, 288.9942932128906
0, 7, 24, 313.7139282226562
0, 7, 25, 325.5982360839844
0, 7, 26, 277.0394592285156
0, 7, 27, 298.0067138671875
0, 7, 28, 325.2778930664062
0, 7, 29, 318.505126953125
0, 7, 30, 303.7468872070312
0, 7, 31, 277.0383911132812
0, 7, 32, 308.2372436523438
0, 7, 33, 263.1527099609375
0, 7, 34, 301.1554260253906
0, 7, 35, 320.212158203125
0, 7, 36, 330.4964599609375
0, 7, 37, 325.0997009277344
0, 7, 38, 296.6783447265625
0, 7, 39, 306.4773559570312
0, 7, 40, 289.4014892578125
0, 7, 41, 272.0687561035156
0, 7, 42, 301.1931457519531
0, 7, 43, 274.7107543945312
0, 7, 44, 304.9124755859375
0, 7, 45, 294.1121520996094
0, 7, 46, 283.6001586914062
0, 7, 47, 328.7065124511719
0, 7, 48, 284.4315490722656
0, 7, 49, 301.0561828613281
0, 7, 50, 321.2600708007812
0, 7, 51, 299.2748718261719
0, 7, 52, 325.2769470214844
0, 7, 53, 313.3806457519531
0, 7, 54, 325.0370483398438
0, 7, 55, 306.4150390625
0, 7, 56, 279.5314636230469
0, 7, 57, 280.9104919433594
0, 7, 58, 296.0541381835938
0, 7, 59, 293.8035278320312
0, 7, 60, 322.1525268554688
0, 7, 61, 277.8640441894531
0, 7, 62, 296.7452087402344
0, 7, 63, 293.8987731933594
0, 7, 64, 307.7166137695312
0, 7, 65, 330.4243469238281
0, 7, 66, 319.7098999023438
0, 7, 67, 301.7068786621094
0, 7, 68, 279.9558410644531
0, 7, 69, 294.5903625488281
0, 7, 70, 302.0892333984375
0, 7, 71, 308.8948974609375
0, 7, 72, 287.1522521972656
0, 7, 73, 296.3922119140625
0, 7, 74, 344.3958740234375
0, 7, 75, 318.3193664550781
0, 7, 76, 321.1717529296875
0, 7, 77, 280.2054748535156
0, 7, 78, 299.983154296875
0, 7, 79, 297.3795776367188
0, 7, 80, 310.6128234863281
0, 7, 81, 319.4421081542969
0, 7, 82, 331.8104858398438
0, 7, 83, 320.1966552734375
0, 7, 84, 309.007080078125
0, 7, 85, 271.9434204101562
0, 7, 86, 310.8665466308594
0, 7, 87, 309.1833801269531
0, 7, 88, 306.227294921875
0, 7, 89, 292.050048828125
0, 7, 90, 306.4684143066406
0, 7, 91, 314.6150817871094
0, 7, 92, 290.8008422851562
0, 7, 93, 307.118896484375
0, 7, 94, 275.63916015625
0, 7, 95, 298.002685546875
0, 7, 96, 330.3042297363281
0, 7, 97, 294.7702026367188
0, 7, 98, 291.3561401367188
0, 7, 99, 311.3013305664062
0, 7, 100, 282.0381774902344
0, 7, 101, 276.5799865722656
0, 7, 102, 289.0009765625
0, 7, 103, 291.5372009277344
0, 7, 104, 273.9194030761719
0, 7, 105, 306.6568908691406
0, 7, 106, 317.9895935058594
0, 7, 107, 295.7043151855469
0, 7, 108, 273.5462646484375
0, 7, 109, 237.5457611083984
0, 7, 110, 96.26622772216797
0, 7, 111, 22.94230651855469
0, 7, 112, 14.09226322174072
0, 7, 113, 12.65707778930664
0, 7, 114, 11.07095527648926
0, 7, 115, 13.15213775634766
0, 7, 116, 6.904420852661133
0, 7, 117, 7.591527462005615
0, 7, 118, 8.827741622924805
0, 7, 119, 6.153567790985107
0, 7, 120, 4.521679401397705
0, 7, 121, 5.902519226074219
0, 7, 122, 4.770147800445557
0, 7, 123, 5.852293014526367
0, 7, 124, 6.749285221099854
0, 7, 125, 6.104463577270508
0, 7, 126, 8.148028373718262
0, 7, 127, 2.291795253753662
0, 8, 0, 3.307187557220459
0, 8, 1, 4.809711456298828
0, 8, 2, 4.485648155212402
0, 8, 3, 4.901431083679199
0, 8, 4, 3.730885982513428
0, 8, 5, 3.97785210609436
0, 8, 6, 4.239551544189453
0, 8, 7, 6.044826984405518
0, 8, 8, 8.957052230834961
0, 8, 9, 5.081204891204834
0, 8, 10, 6.296823024749756
0, 8, 11, 12.07464218139648
0, 8, 12, 14.12863636016846
0, 8, 13, 14.5972843170166
0, 8, 14, 15.09717559814453
0, 8, 15, 18.6780948638916
0, 8, 16, 31.79850006103516
0, 8, 17, 131.3650970458984
0, 8, 18, 242.3938598632812
0, 8, 19, 297.0733947753906
0, 8, 20, 287.0476684570312
0, 8, 21, 307.1461181640625
0, 8, 22, 295.815673828125
0, 8, 23, 275.9779357910156
0, 8, 24, 268.9365844726562
0, 8, 25, 276.8404541015625
0, 8, 26, 306.5572814941406
0, 8, 27, 306.7133483886719
0, 8, 28, 304.38037109375
0, 8, 29, 320.7837524414062
0, 8, 30, 313.4357299804688
0, 8, 31, 304.3027954101562
0, 8, 32, 281.0339050292969
0, 8, 33, 293.4900817871094
0, 8, 34, 287.749267578125
0, 8, 35, 278.2699890136719
0, 8, 36, 314.7079772949219
0, 8, 37, 337.8404235839844
0, 8, 38, 332.3558044433594
0, 8, 39, 280.6225280761719
0, 8, 40, 305.8838806152344
